# participant_id: Blink_H
# gesture: custom
# trial_number: 6
# stream_name: BioRadio_Configuration
# timestamp: 20260430_100429
# samples: 2242
# duration_sec: 8.960
# nominal_sample_rate: 250.0
# effective_sample_rate: 250.11
#
timestamp,EMG1,GSR2
3708780.071134,19.000000,0.000000
3708780.071140,3.000000,0.000000
3708780.090034,-70.000000,0.000000
3708780.090039,-92.000000,0.000000
3708780.090045,-88.000000,0.000000
3708780.090050,-74.000000,0.000000
3708780.097569,-2.000000,0.000000
3708780.097572,21.000000,0.000000
3708780.107843,19.000000,0.000000
3708780.107849,0.000000,0.000000
3708780.114196,-69.000000,0.000000
3708780.114200,-91.000000,0.000000
3708780.141868,-91.000000,0.000000
3708780.141876,-75.000000,0.000000
3708780.144404,-2.000000,0.000000
3708780.144414,23.000000,0.000000
3708780.145693,24.000000,0.000000
3708780.145696,3.000000,0.000000
3708780.146966,-67.000000,0.000000
3708780.146969,-90.000000,0.000000
3708780.150752,-88.000000,0.000000
3708780.150758,-73.000000,0.000000
3708780.159562,-1.000000,0.000000
3708780.159565,26.000000,0.000000
3708780.166937,22.000000,0.000000
3708780.166940,6.000000,0.000000
3708780.180791,-65.000000,0.000000
3708780.180795,-89.000000,0.000000
3708780.183328,-87.000000,0.000000
3708780.183331,-72.000000,0.000000
3708780.194647,-1.000000,0.000000
3708780.194650,23.000000,0.000000
3708780.200950,20.000000,0.000000
3708780.200953,7.000000,0.000000
3708780.223598,-68.000000,0.000000
3708780.223604,-92.000000,0.000000
3708780.237435,-88.000000,0.000000
3708780.237441,-73.000000,0.000000
3708780.238721,3.000000,0.000000
3708780.238724,21.000000,0.000000
3708780.240026,19.000000,0.000000
3708780.240030,5.000000,0.000000
3708780.242439,-67.000000,0.000000
3708780.242443,-87.000000,0.000000
3708780.247480,-91.000000,0.000000
3708780.247483,-73.000000,0.000000
3708780.255033,0.000000,0.000000
3708780.255040,22.000000,0.000000
3708780.266364,23.000000,0.000000
3708780.266369,5.000000,0.000000
3708780.270179,-68.000000,0.000000
3708780.270183,-89.000000,0.000000
3708780.278996,-88.000000,0.000000
3708780.279002,-72.000000,0.000000
3708780.287811,0.000000,0.000000
3708780.287814,22.000000,0.000000
3708780.296616,20.000000,0.000000
3708780.296619,6.000000,0.000000
3708780.301745,-67.000000,0.000000
3708780.301750,-88.000000,0.000000
3708780.311631,-93.000000,0.000000
3708780.311637,-73.000000,0.000000
3708780.320454,2.000000,0.000000
3708780.320458,22.000000,0.000000
3708780.326757,26.000000,0.000000
3708780.326761,6.000000,0.000000
3708780.335580,-67.000000,0.000000
3708780.335585,-89.000000,0.000000
3708780.346946,-86.000000,0.000000
3708780.346952,-71.000000,0.000000
3708780.350737,4.000000,0.000000
3708780.350742,24.000000,0.000000
3708780.358296,22.000000,0.000000
3708780.358299,5.000000,0.000000
3708780.367123,-66.000000,0.000000
3708780.367128,-88.000000,0.000000
3708780.385994,-87.000000,0.000000
3708780.386001,-72.000000,0.000000
3708780.386008,3.000000,0.000000
3708780.386009,24.000000,0.000000
3708780.389795,21.000000,0.000000
3708780.389801,6.000000,0.000000
3708780.399779,-68.000000,0.000000
3708780.399784,-87.000000,0.000000
3708780.408608,-91.000000,0.000000
3708780.408613,-73.000000,0.000000
3708780.417495,0.000000,0.000000
3708780.417499,24.000000,0.000000
3708780.423799,23.000000,0.000000
3708780.423804,13.000000,0.000000
3708780.433938,-65.000000,0.000000
3708780.433942,-89.000000,0.000000
3708780.440255,-91.000000,0.000000
3708780.440261,-74.000000,0.000000
3708780.446570,-2.000000,0.000000
3708780.446573,21.000000,0.000000
3708780.455378,23.000000,0.000000
3708780.455384,7.000000,0.000000
3708780.464218,-63.000000,0.000000
3708780.464225,-86.000000,0.000000
3708780.473045,-89.000000,0.000000
3708780.473049,-72.000000,0.000000
3708780.478083,2.000000,0.000000
3708780.478085,25.000000,0.000000
3708780.488152,26.000000,0.000000
3708780.488157,7.000000,0.000000
3708780.524324,-68.000000,0.000000
3708780.524330,-88.000000,0.000000
3708780.524351,-90.000000,0.000000
3708780.524353,-75.000000,0.000000
3708780.538215,1.000000,0.000000
3708780.538221,24.000000,0.000000
3708780.539490,22.000000,0.000000
3708780.539496,7.000000,0.000000
3708780.540761,-61.000000,0.000000
3708780.540764,-89.000000,0.000000
3708780.542031,-90.000000,0.000000
3708780.542037,-72.000000,0.000000
3708780.544556,5.000000,0.000000
3708780.544559,24.000000,0.000000
3708780.549594,22.000000,0.000000
3708780.549601,6.000000,0.000000
3708780.558412,-65.000000,0.000000
3708780.558420,-88.000000,0.000000
3708780.568345,-87.000000,0.000000
3708780.568350,-71.000000,0.000000
3708780.577161,0.000000,0.000000
3708780.577167,21.000000,0.000000
3708780.583461,24.000000,0.000000
3708780.583466,7.000000,0.000000
3708780.591036,-67.000000,0.000000
3708780.591043,-89.000000,0.000000
3708780.602378,-88.000000,0.000000
3708780.602382,-77.000000,0.000000
3708780.606164,0.000000,0.000000
3708780.606171,24.000000,0.000000
3708780.616229,21.000000,0.000000
3708780.616232,4.000000,0.000000
3708780.625081,-65.000000,0.000000
3708780.625086,-84.000000,0.000000
3708780.642720,-90.000000,0.000000
3708780.642723,-75.000000,0.000000
3708780.642729,-2.000000,0.000000
3708780.642737,24.000000,0.000000
3708780.646496,21.000000,0.000000
3708780.646499,4.000000,0.000000
3708780.655335,-67.000000,0.000000
3708780.655339,-88.000000,0.000000
3708780.664217,-88.000000,0.000000
3708780.664221,-72.000000,0.000000
3708780.683118,4.000000,0.000000
3708780.683122,24.000000,0.000000
3708780.683128,21.000000,0.000000
3708780.683130,3.000000,0.000000
3708780.686911,-67.000000,0.000000
3708780.686915,-92.000000,0.000000
3708780.698255,-96.000000,0.000000
3708780.698261,-78.000000,0.000000
3708780.703298,-1.000000,0.000000
3708780.703303,21.000000,0.000000
3708780.709595,19.000000,0.000000
3708780.709600,6.000000,0.000000
3708780.718421,-67.000000,0.000000
3708780.718426,-87.000000,0.000000
3708780.727238,-87.000000,0.000000
3708780.727242,-71.000000,0.000000
3708780.736049,2.000000,0.000000
3708780.736054,20.000000,0.000000
3708780.743632,24.000000,0.000000
3708780.743638,7.000000,0.000000
3708780.751265,-64.000000,0.000000
3708780.751271,-82.000000,0.000000
3708780.760096,-90.000000,0.000000
3708780.760100,-75.000000,0.000000
3708780.766402,-2.000000,0.000000
3708780.766408,25.000000,0.000000
3708780.777741,26.000000,0.000000
3708780.777747,9.000000,0.000000
3708780.784040,-67.000000,1.000000
3708780.784044,-87.000000,1.000000
3708780.802923,-86.000000,1.000000
3708780.802931,-69.000000,1.000000
3708780.802937,2.000000,1.000000
3708780.802939,22.000000,1.000000
3708780.823012,22.000000,1.000000
3708780.823017,10.000000,1.000000
3708780.838099,-64.000000,1.000000
3708780.838102,-88.000000,1.000000
3708780.839379,-87.000000,1.000000
3708780.839385,-68.000000,1.000000
3708780.841923,0.000000,1.000000
3708780.841928,22.000000,1.000000
3708780.844461,23.000000,1.000000
3708780.844478,7.000000,1.000000
3708780.846999,-66.000000,1.000000
3708780.847002,-84.000000,1.000000
3708780.854565,-84.000000,1.000000
3708780.854568,-75.000000,1.000000
3708780.863369,1.000000,1.000000
3708780.863372,25.000000,1.000000
3708780.873497,24.000000,1.000000
3708780.873504,8.000000,1.000000
3708780.879805,-70.000000,0.000000
3708780.879809,-87.000000,0.000000
3708780.888654,-86.000000,0.000000
3708780.888658,-69.000000,0.000000
3708780.897457,2.000000,0.000000
3708780.897459,20.000000,0.000000
3708780.902547,24.000000,0.000000
3708780.902550,7.000000,0.000000
3708780.911491,-66.000000,0.000000
3708780.911497,-88.000000,0.000000
3708780.930401,-93.000000,0.000000
3708780.930404,-71.000000,0.000000
3708780.930411,4.000000,0.000000
3708780.930413,20.000000,0.000000
3708780.936774,24.000000,0.000000
3708780.936781,9.000000,0.000000
3708780.943079,-67.000000,0.000000
3708780.943083,-86.000000,0.000000
3708780.951898,-89.000000,0.000000
3708780.951904,-72.000000,0.000000
3708780.970786,1.000000,0.000000
3708780.970791,21.000000,0.000000
3708780.970797,24.000000,0.000000
3708780.970798,13.000000,0.000000
3708780.975837,-65.000000,0.000000
3708780.975841,-90.000000,0.000000
3708780.982156,-88.000000,0.000000
3708780.982161,-73.000000,0.000000
3708780.990969,0.000000,0.000000
3708780.990975,25.000000,0.000000
3708780.999782,25.000000,0.000000
3708780.999788,7.000000,0.000000
3708781.006105,-65.000000,0.000000
3708781.006111,-86.000000,0.000000
3708781.016046,-92.000000,0.000000
3708781.016052,-70.000000,0.000000
3708781.024875,0.000000,0.000000
3708781.024881,18.000000,0.000000
3708781.033712,26.000000,0.000000
3708781.033719,11.000000,0.000000
3708781.038777,-65.000000,0.000000
3708781.038780,-91.000000,0.000000
3708781.050129,-89.000000,0.000000
3708781.050135,-72.000000,0.000000
3708781.056436,1.000000,0.000000
3708781.056439,22.000000,0.000000
3708781.062731,20.000000,0.000000
3708781.062734,5.000000,0.000000
3708781.071556,-63.000000,0.000000
3708781.071561,-87.000000,0.000000
3708781.090458,-85.000000,0.000000
3708781.090464,-73.000000,0.000000
3708781.090471,6.000000,0.000000
3708781.090472,21.000000,0.000000
3708781.096767,23.000000,0.000000
3708781.096771,8.000000,0.000000
3708781.124483,-69.000000,0.000000
3708781.124490,-90.000000,0.000000
3708781.138169,-87.000000,0.000000
3708781.138175,-71.000000,0.000000
3708781.139453,-1.000000,0.000000
3708781.139456,25.000000,0.000000
3708781.140724,23.000000,0.000000
3708781.140734,10.000000,0.000000
3708781.143264,-71.000000,0.000000
3708781.143270,-90.000000,0.000000
3708781.144535,-86.000000,0.000000
3708781.144538,-70.000000,0.000000
3708781.152085,1.000000,0.000000
3708781.152090,19.000000,0.000000
3708781.159640,19.000000,0.000000
3708781.159644,7.000000,0.000000
3708781.165953,-70.000000,0.000000
3708781.165959,-89.000000,0.000000
3708781.174809,-87.000000,0.000000
3708781.174814,-73.000000,0.000000
3708781.184638,1.000000,0.000000
3708781.184644,19.000000,0.000000
3708781.203569,22.000000,0.000000
3708781.203575,6.000000,0.000000
3708781.203582,-65.000000,0.000000
3708781.203583,-88.000000,0.000000
3708781.206138,-92.000000,0.000000
3708781.206143,-72.000000,0.000000
3708781.214938,2.000000,0.000000
3708781.214944,27.000000,0.000000
3708781.233820,25.000000,0.000000
3708781.233827,8.000000,0.000000
3708781.233845,-66.000000,0.000000
3708781.233847,-87.000000,0.000000
3708781.240146,-91.000000,0.000000
3708781.240150,-72.000000,0.000000
3708781.248956,4.000000,0.000000
3708781.248963,23.000000,0.000000
3708781.255256,22.000000,0.000000
3708781.255262,7.000000,0.000000
3708781.263875,-68.000000,0.000000
3708781.263880,-88.000000,0.000000
3708781.270194,-87.000000,0.000000
3708781.270197,-71.000000,0.000000
3708781.279003,3.000000,0.000000
3708781.279006,18.000000,0.000000
3708781.287816,26.000000,0.000000
3708781.287822,11.000000,0.000000
3708781.296657,-65.000000,0.000000
3708781.296661,-85.000000,0.000000
3708781.302965,-87.000000,0.000000
3708781.302970,-73.000000,0.000000
3708781.310522,3.000000,0.000000
3708781.310525,24.000000,0.000000
3708781.319321,21.000000,0.000000
3708781.319324,5.000000,0.000000
3708781.328121,-61.000000,0.000000
3708781.328126,-83.000000,0.000000
3708781.336947,-93.000000,0.000000
3708781.336950,-74.000000,0.000000
3708781.354593,2.000000,0.000000
3708781.354607,30.000000,0.000000
3708781.354616,27.000000,0.000000
3708781.354618,4.000000,0.000000
3708781.360859,-66.000000,0.000000
3708781.360863,-87.000000,0.000000
3708781.367176,-84.000000,0.000000
3708781.367179,-74.000000,0.000000
3708781.375992,1.000000,0.000000
3708781.375997,25.000000,0.000000
3708781.384809,23.000000,0.000000
3708781.384813,8.000000,0.000000
3708781.389863,-67.000000,0.000000
3708781.389868,-85.000000,0.000000
3708781.421322,-89.000000,0.000000
3708781.421328,-70.000000,0.000000
3708781.446505,-1.000000,0.000000
3708781.446509,25.000000,0.000000
3708781.455360,26.000000,0.000000
3708781.455364,7.000000,0.000000
3708781.456629,-70.000000,0.000000
3708781.456632,-89.000000,0.000000
3708781.457938,-87.000000,0.000000
3708781.457941,-70.000000,0.000000
3708781.461713,0.000000,0.000000
3708781.461716,23.000000,0.000000
3708781.466770,25.000000,0.000000
3708781.466776,9.000000,0.000000
3708781.466782,-63.000000,0.000000
3708781.466783,-88.000000,0.000000
3708781.469312,-91.000000,0.000000
3708781.469315,-74.000000,0.000000
3708781.470582,3.000000,0.000000
3708781.470584,23.000000,0.000000
3708781.495763,22.000000,0.000000
3708781.495768,9.000000,0.000000
3708781.495774,-66.000000,0.000000
3708781.495775,-88.000000,0.000000
3708781.497039,-87.000000,0.000000
3708781.497044,-76.000000,0.000000
3708781.502077,2.000000,0.000000
3708781.502083,23.000000,0.000000
3708781.510883,26.000000,0.000000
3708781.510886,9.000000,0.000000
3708781.520773,-63.000000,0.000000
3708781.520778,-87.000000,0.000000
3708781.527111,-84.000000,0.000000
3708781.527114,-66.000000,0.000000
3708781.535930,1.000000,0.000000
3708781.535933,23.000000,0.000000
3708781.544755,28.000000,0.000000
3708781.544760,10.000000,0.000000
3708781.551108,-63.000000,0.000000
3708781.551142,-84.000000,0.000000
3708781.559965,-82.000000,0.000000
3708781.559969,-67.000000,0.000000
3708781.570043,5.000000,0.000000
3708781.570049,28.000000,0.000000
3708781.576350,25.000000,0.000000
3708781.576353,7.000000,0.000000
3708781.582683,-66.000000,1.000000
3708781.582688,-87.000000,1.000000
3708781.591578,-84.000000,1.000000
3708781.591582,-69.000000,1.000000
3708781.600379,3.000000,1.000000
3708781.600382,26.000000,1.000000
3708781.606679,27.000000,1.000000
3708781.606684,8.000000,1.000000
3708781.614293,-63.000000,1.000000
3708781.614300,-87.000000,1.000000
3708781.633163,-89.000000,1.000000
3708781.633170,-68.000000,1.000000
3708781.633176,4.000000,1.000000
3708781.633178,25.000000,1.000000
3708781.640592,25.000000,1.000000
3708781.640596,9.000000,1.000000
3708781.649418,-62.000000,0.000000
3708781.649426,-84.000000,0.000000
3708781.654499,-87.000000,0.000000
3708781.654502,-67.000000,0.000000
3708781.668346,3.000000,0.000000
3708781.668352,23.000000,0.000000
3708781.672134,24.000000,0.000000
3708781.672140,10.000000,0.000000
3708781.679726,-64.000000,0.000000
3708781.679732,-87.000000,0.000000
3708781.687322,-85.000000,0.000000
3708781.687326,-69.000000,0.000000
3708781.696130,4.000000,0.000000
3708781.696133,27.000000,0.000000
3708781.702422,24.000000,0.000000
3708781.702428,12.000000,0.000000
3708781.727623,-62.000000,0.000000
3708781.727628,-84.000000,0.000000
3708781.737698,-84.000000,0.000000
3708781.737704,-68.000000,0.000000
3708781.738974,2.000000,0.000000
3708781.738978,25.000000,0.000000
3708781.740296,28.000000,0.000000
3708781.740299,12.000000,0.000000
3708781.742883,-62.000000,0.000000
3708781.742886,-85.000000,0.000000
3708781.750445,-84.000000,0.000000
3708781.750449,-68.000000,0.000000
3708781.759276,6.000000,0.000000
3708781.759282,25.000000,0.000000
3708781.768090,26.000000,0.000000
3708781.768096,8.000000,0.000000
3708781.787051,-64.000000,0.000000
3708781.787057,-82.000000,0.000000
3708781.787063,-82.000000,0.000000
3708781.787064,-67.000000,0.000000
3708781.790844,6.000000,0.000000
3708781.790848,25.000000,0.000000
3708781.799647,27.000000,0.000000
3708781.799654,14.000000,0.000000
3708781.807207,-65.000000,0.000000
3708781.807211,-87.000000,0.000000
3708781.813501,-84.000000,0.000000
3708781.813508,-68.000000,0.000000
3708781.824819,4.000000,0.000000
3708781.824822,28.000000,0.000000
3708781.831108,28.000000,0.000000
3708781.831111,11.000000,0.000000
3708781.841138,-63.000000,0.000000
3708781.841159,-84.000000,0.000000
3708781.846253,-83.000000,0.000000
3708781.846256,-70.000000,0.000000
3708781.855068,2.000000,0.000000
3708781.855073,25.000000,0.000000
3708781.863876,26.000000,0.000000
3708781.863879,8.000000,0.000000
3708781.872741,-64.000000,0.000000
3708781.872746,-82.000000,0.000000
3708781.879061,-85.000000,0.000000
3708781.879068,-71.000000,0.000000
3708781.887876,0.000000,0.000000
3708781.887879,30.000000,0.000000
3708781.896680,27.000000,0.000000
3708781.896683,8.000000,0.000000
3708781.901737,-63.000000,0.000000
3708781.901741,-83.000000,0.000000
3708781.910587,-85.000000,0.000000
3708781.910591,-67.000000,0.000000
3708781.925585,6.000000,0.000000
3708781.925591,27.000000,0.000000
3708781.928121,25.000000,0.000000
3708781.928125,10.000000,0.000000
3708781.935721,-62.000000,0.000000
3708781.935726,-85.000000,0.000000
3708781.944589,-86.000000,0.000000
3708781.944591,-70.000000,0.000000
3708781.952146,5.000000,0.000000
3708781.952151,25.000000,0.000000
3708781.960973,27.000000,0.000000
3708781.960979,8.000000,0.000000
3708781.968546,-59.000000,0.000000
3708781.968550,-86.000000,0.000000
3708781.977381,-88.000000,0.000000
3708781.977385,-68.000000,0.000000
3708781.983679,6.000000,0.000000
3708781.983685,23.000000,0.000000
3708781.991241,26.000000,0.000000
3708781.991246,11.000000,0.000000
3708782.000071,-60.000000,0.000000
3708782.000075,-83.000000,0.000000
3708782.027812,-86.000000,0.000000
3708782.027818,-71.000000,0.000000
3708782.037895,3.000000,0.000000
3708782.037900,28.000000,0.000000
3708782.039166,28.000000,0.000000
3708782.039171,9.000000,0.000000
3708782.040438,-62.000000,0.000000
3708782.040444,-82.000000,0.000000
3708782.041710,-81.000000,0.000000
3708782.041717,-69.000000,0.000000
3708782.046638,3.000000,0.000000
3708782.046641,28.000000,0.000000
3708782.055453,27.000000,0.000000
3708782.055459,12.000000,0.000000
3708782.066790,-62.000000,0.000000
3708782.066795,-87.000000,0.000000
3708782.070584,-82.000000,0.000000
3708782.070595,-65.000000,0.000000
3708782.079532,6.000000,0.000000
3708782.079534,26.000000,0.000000
3708782.088348,27.000000,0.000000
3708782.088352,10.000000,0.000000
3708782.094657,-64.000000,0.000000
3708782.094661,-85.000000,0.000000
3708782.103506,-84.000000,0.000000
3708782.103513,-66.000000,0.000000
3708782.111063,6.000000,0.000000
3708782.111066,25.000000,0.000000
3708782.121128,24.000000,0.000000
3708782.121132,10.000000,0.000000
3708782.126171,-61.000000,0.000000
3708782.126176,-82.000000,0.000000
3708782.134984,-81.000000,0.000000
3708782.134989,-67.000000,0.000000
3708782.146306,1.000000,0.000000
3708782.146310,23.000000,0.000000
3708782.150088,27.000000,0.000000
3708782.150094,9.000000,0.000000
3708782.159992,-63.000000,0.000000
3708782.159996,-84.000000,0.000000
3708782.167550,-84.000000,0.000000
3708782.167553,-69.000000,0.000000
3708782.176376,6.000000,0.000000
3708782.176382,28.000000,0.000000
3708782.182667,24.000000,0.000000
3708782.182669,10.000000,0.000000
3708782.191486,-60.000000,0.000000
3708782.191490,-84.000000,0.000000
3708782.210360,-87.000000,0.000000
3708782.210366,-69.000000,0.000000
3708782.210373,1.000000,0.000000
3708782.210378,26.000000,0.000000
3708782.216670,25.000000,0.000000
3708782.216676,12.000000,0.000000
3708782.224225,-63.000000,0.000000
3708782.224232,-86.000000,0.000000
3708782.230374,-85.000000,0.000000
3708782.230378,-65.000000,0.000000
3708782.242968,2.000000,0.000000
3708782.242974,25.000000,0.000000
3708782.246752,25.000000,0.000000
3708782.246755,10.000000,0.000000
3708782.255588,-63.000000,0.000000
3708782.255593,-83.000000,0.000000
3708782.264445,-86.000000,0.000000
3708782.264449,-73.000000,0.000000
3708782.269494,2.000000,0.000000
3708782.269499,27.000000,0.000000
3708782.278300,28.000000,0.000000
3708782.278303,10.000000,0.000000
3708782.287009,-64.000000,0.000000
3708782.287016,-89.000000,0.000000
3708782.297044,-90.000000,0.000000
3708782.297049,-69.000000,0.000000
3708782.303351,3.000000,0.000000
3708782.303357,27.000000,0.000000
3708782.324762,24.000000,0.000000
3708782.324768,7.000000,0.000000
3708782.338614,-61.000000,0.000000
3708782.338619,-83.000000,0.000000
3708782.339883,-83.000000,0.000000
3708782.339885,-67.000000,0.000000
3708782.343660,5.000000,0.000000
3708782.343663,26.000000,0.000000
3708782.346195,25.000000,0.000000
3708782.346200,13.000000,0.000000
3708782.351260,-57.000000,0.000000
3708782.351263,-81.000000,0.000000
3708782.370141,-87.000000,0.000000
3708782.370148,-69.000000,0.000000
3708782.370155,7.000000,0.000000
3708782.370157,29.000000,0.000000
3708782.377505,28.000000,0.000000
3708782.377512,12.000000,0.000000
3708782.382562,-62.000000,0.000000
3708782.382566,-83.000000,0.000000
3708782.391404,-84.000000,0.000000
3708782.391407,-68.000000,0.000000
3708782.400218,6.000000,0.000000
3708782.400222,25.000000,0.000000
3708782.406516,28.000000,0.000000
3708782.406522,12.000000,0.000000
3708782.415347,-62.000000,1.000000
3708782.415352,-80.000000,1.000000
3708782.424173,-82.000000,1.000000
3708782.424180,-67.000000,1.000000
3708782.432982,4.000000,1.000000
3708782.432988,26.000000,1.000000
3708782.441814,24.000000,1.000000
3708782.441820,10.000000,1.000000
3708782.454415,-61.000000,1.000000
3708782.454419,-83.000000,1.000000
3708782.454427,-84.000000,1.000000
3708782.454428,-66.000000,1.000000
3708782.473309,6.000000,1.000000
3708782.473314,27.000000,1.000000
3708782.473320,27.000000,1.000000
3708782.473322,11.000000,1.000000
3708782.480868,-60.000000,0.000000
3708782.480873,-83.000000,0.000000
3708782.492217,-83.000000,0.000000
3708782.492221,-63.000000,0.000000
3708782.494745,3.000000,0.000000
3708782.494748,28.000000,0.000000
3708782.504817,30.000000,0.000000
3708782.504823,11.000000,0.000000
3708782.522483,-61.000000,0.000000
3708782.522490,-82.000000,0.000000
3708782.522496,-82.000000,0.000000
3708782.522497,-64.000000,0.000000
3708782.526277,7.000000,0.000000
3708782.526279,22.000000,0.000000
3708782.535078,24.000000,0.000000
3708782.535080,11.000000,0.000000
3708782.543900,-61.000000,0.000000
3708782.543905,-86.000000,0.000000
3708782.550127,-85.000000,0.000000
3708782.550130,-67.000000,0.000000
3708782.558941,7.000000,0.000000
3708782.558947,27.000000,0.000000
3708782.567748,26.000000,0.000000
3708782.567754,11.000000,0.000000
3708782.579090,-59.000000,0.000000
3708782.579095,-83.000000,0.000000
3708782.582876,-81.000000,0.000000
3708782.582879,-64.000000,0.000000
3708782.591694,6.000000,0.000000
3708782.591700,24.000000,0.000000
3708782.600510,26.000000,0.000000
3708782.600515,10.000000,0.000000
3708782.624237,-60.000000,0.000000
3708782.624242,-80.000000,0.000000
3708782.638185,-80.000000,0.000000
3708782.638274,-63.000000,0.000000
3708782.639568,7.000000,0.000000
3708782.639572,25.000000,0.000000
3708782.640839,27.000000,0.000000
3708782.640843,13.000000,0.000000
3708782.643376,-60.000000,0.000000
3708782.643380,-82.000000,0.000000
3708782.647158,-85.000000,0.000000
3708782.647161,-69.000000,0.000000
3708782.657236,7.000000,0.000000
3708782.657241,27.000000,0.000000
3708782.663528,26.000000,0.000000
3708782.663531,14.000000,0.000000
3708782.669915,-62.000000,0.000000
3708782.669920,-86.000000,0.000000
3708782.700154,-87.000000,0.000000
3708782.700160,-70.000000,0.000000
3708782.700166,4.000000,0.000000
3708782.700167,25.000000,0.000000
3708782.702696,26.000000,0.000000
3708782.702699,11.000000,0.000000
3708782.703975,-63.000000,0.000000
3708782.703982,-85.000000,0.000000
3708782.711365,-85.000000,0.000000
3708782.711369,-69.000000,0.000000
3708782.720174,3.000000,0.000000
3708782.720177,25.000000,0.000000
3708782.726471,25.000000,0.000000
3708782.726477,9.000000,0.000000
3708782.735293,-65.000000,0.000000
3708782.735298,-85.000000,0.000000
3708782.746642,-83.000000,0.000000
3708782.746648,-69.000000,0.000000
3708782.750433,3.000000,0.000000
3708782.750436,25.000000,0.000000
3708782.759240,27.000000,0.000000
3708782.759247,12.000000,0.000000
3708782.766865,-60.000000,0.000000
3708782.766869,-82.000000,0.000000
3708782.780725,-85.000000,0.000000
3708782.780729,-66.000000,0.000000
3708782.783251,7.000000,0.000000
3708782.783254,25.000000,0.000000
3708782.790810,24.000000,0.000000
3708782.790813,9.000000,0.000000
3708782.800921,-60.000000,0.000000
3708782.800925,-82.000000,0.000000
3708782.807247,-85.000000,0.000000
3708782.807251,-68.000000,0.000000
3708782.816065,2.000000,0.000000
3708782.816071,25.000000,0.000000
3708782.827405,25.000000,0.000000
3708782.827410,10.000000,0.000000
3708782.831207,-62.000000,0.000000
3708782.831211,-85.000000,0.000000
3708782.838769,-84.000000,0.000000
3708782.838772,-68.000000,0.000000
3708782.848849,6.000000,0.000000
3708782.848855,28.000000,0.000000
3708782.856423,25.000000,0.000000
3708782.856430,6.000000,0.000000
3708782.862744,-59.000000,0.000000
3708782.862749,-83.000000,0.000000
3708782.871576,-86.000000,0.000000
3708782.871583,-69.000000,0.000000
3708782.880384,7.000000,0.000000
3708782.880387,24.000000,0.000000
3708782.886679,27.000000,0.000000
3708782.886682,11.000000,0.000000
3708782.894250,-59.000000,0.000000
3708782.894254,-84.000000,0.000000
3708782.924264,-85.000000,0.000000
3708782.924269,-69.000000,0.000000
3708782.938116,6.000000,0.000000
3708782.938122,30.000000,0.000000
3708782.939390,24.000000,0.000000
3708782.939396,8.000000,0.000000
3708782.940660,-62.000000,0.000000
3708782.940663,-82.000000,0.000000
3708782.943188,-83.000000,0.000000
3708782.943194,-69.000000,0.000000
3708782.945714,2.000000,0.000000
3708782.945716,27.000000,0.000000
3708782.950753,25.000000,0.000000
3708782.950760,8.000000,0.000000
3708782.958323,-61.000000,0.000000
3708782.958330,-84.000000,0.000000
3708782.967157,-87.000000,0.000000
3708782.967164,-69.000000,0.000000
3708782.975973,5.000000,0.000000
3708782.975979,27.000000,0.000000
3708782.982266,26.000000,0.000000
3708782.982272,11.000000,0.000000
3708782.992162,-59.000000,0.000000
3708782.992169,-88.000000,0.000000
3708783.001077,-93.000000,0.000000
3708783.001081,-68.000000,0.000000
3708783.007381,11.000000,0.000000
3708783.007387,30.000000,0.000000
3708783.016190,29.000000,0.000000
3708783.016194,10.000000,0.000000
3708783.025053,-59.000000,0.000000
3708783.025057,-85.000000,0.000000
3708783.032615,-84.000000,0.000000
3708783.032619,-68.000000,0.000000
3708783.038916,3.000000,0.000000
3708783.038922,24.000000,0.000000
3708783.047728,31.000000,0.000000
3708783.047732,14.000000,0.000000
3708783.066660,-63.000000,0.000000
3708783.066670,-83.000000,0.000000
3708783.066677,-84.000000,0.000000
3708783.066678,-69.000000,0.000000
3708783.070461,6.000000,0.000000
3708783.070467,29.000000,0.000000
3708783.083039,26.000000,0.000000
3708783.083043,7.000000,0.000000
3708783.085566,-60.000000,0.000000
3708783.085569,-82.000000,0.000000
3708783.095495,-81.000000,0.000000
3708783.095499,-68.000000,0.000000
3708783.104305,5.000000,0.000000
3708783.104308,26.000000,0.000000
3708783.110607,27.000000,0.000000
3708783.110609,13.000000,0.000000
3708783.119484,-62.000000,0.000000
3708783.119490,-83.000000,0.000000
3708783.128326,-85.000000,0.000000
3708783.128330,-68.000000,0.000000
3708783.137142,5.000000,0.000000
3708783.137146,30.000000,0.000000
3708783.143457,26.000000,0.000000
3708783.143462,8.000000,0.000000
3708783.153545,-62.000000,0.000000
3708783.153551,-80.000000,0.000000
3708783.159843,-82.000000,0.000000
3708783.159846,-67.000000,0.000000
3708783.166136,4.000000,0.000000
3708783.166141,29.000000,0.000000
3708783.174950,29.000000,0.000000
3708783.174955,8.000000,0.000000
3708783.193945,-63.000000,0.000000
3708783.193951,-82.000000,0.000000
3708783.193957,-84.000000,0.000000
3708783.193958,-71.000000,0.000000
3708783.200252,2.000000,0.000000
3708783.200258,25.000000,0.000000
3708783.224136,23.000000,0.000000
3708783.224142,7.000000,0.000000
3708783.237983,-66.000000,0.000000
3708783.237987,-87.000000,0.000000
3708783.239255,-84.000000,0.000000
3708783.239275,-72.000000,0.000000
3708783.240550,3.000000,0.000000
3708783.240555,25.000000,0.000000
3708783.243093,27.000000,0.000000
3708783.243096,10.000000,0.000000
3708783.248151,-61.000000,0.000000
3708783.248157,-84.000000,0.000000
3708783.256966,-84.000000,0.000000
3708783.256973,-67.000000,0.000000
3708783.263265,3.000000,0.000000
3708783.263267,27.000000,0.000000
3708783.272071,30.000000,0.000000
3708783.272074,13.000000,0.000000
3708783.279654,-60.000000,0.000000
3708783.279659,-83.000000,0.000000
3708783.285975,-87.000000,0.000000
3708783.285981,-66.000000,0.000000
3708783.294787,5.000000,0.000000
3708783.294791,26.000000,0.000000
3708783.303587,28.000000,0.000000
3708783.303592,13.000000,0.000000
3708783.323719,-64.000000,1.000000
3708783.323728,-82.000000,1.000000
3708783.323735,-82.000000,1.000000
3708783.323737,-70.000000,1.000000
3708783.327519,3.000000,1.000000
3708783.327521,27.000000,1.000000
3708783.340117,26.000000,1.000000
3708783.340122,9.000000,1.000000
3708783.342645,-63.000000,1.000000
3708783.342649,-84.000000,1.000000
3708783.351535,-85.000000,1.000000
3708783.351539,-68.000000,1.000000
3708783.370423,5.000000,1.000000
3708783.370434,25.000000,1.000000
3708783.370444,27.000000,1.000000
3708783.370445,10.000000,1.000000
3708783.376750,-64.000000,0.000000
3708783.376770,-85.000000,0.000000
3708783.383133,-86.000000,0.000000
3708783.383136,-67.000000,0.000000
3708783.391953,4.000000,0.000000
3708783.391958,28.000000,0.000000
3708783.400768,27.000000,0.000000
3708783.400775,11.000000,0.000000
3708783.407082,-62.000000,0.000000
3708783.407087,-85.000000,0.000000
3708783.417171,-83.000000,0.000000
3708783.417177,-69.000000,0.000000
3708783.423469,3.000000,0.000000
3708783.423474,26.000000,0.000000
3708783.432285,27.000000,0.000000
3708783.432289,10.000000,0.000000
3708783.441106,-62.000000,0.000000
3708783.441110,-84.000000,0.000000
3708783.447443,-81.000000,0.000000
3708783.447446,-68.000000,0.000000
3708783.467355,3.000000,0.000000
3708783.467363,27.000000,0.000000
3708783.467370,28.000000,0.000000
3708783.467371,9.000000,0.000000
3708783.469894,-63.000000,0.000000
3708783.469897,-84.000000,0.000000
3708783.478752,-84.000000,0.000000
3708783.478756,-67.000000,0.000000
3708783.487572,3.000000,0.000000
3708783.487578,23.000000,0.000000
3708783.524077,23.000000,0.000000
3708783.524083,10.000000,0.000000
3708783.524089,-65.000000,0.000000
3708783.524105,-84.000000,0.000000
3708783.537951,-87.000000,0.000000
3708783.537957,-69.000000,0.000000
3708783.539224,4.000000,0.000000
3708783.539228,28.000000,0.000000
3708783.539234,27.000000,0.000000
3708783.539235,10.000000,0.000000
3708783.541792,-65.000000,0.000000
3708783.541796,-89.000000,0.000000
3708783.545655,-86.000000,0.000000
3708783.545658,-69.000000,0.000000
3708783.553215,5.000000,0.000000
3708783.553221,24.000000,0.000000
3708783.559520,26.000000,0.000000
3708783.559522,8.000000,0.000000
3708783.568495,-62.000000,0.000000
3708783.568499,-83.000000,0.000000
3708783.577390,-83.000000,0.000000
3708783.577398,-68.000000,0.000000
3708783.583704,3.000000,0.000000
3708783.583720,25.000000,0.000000
3708783.595040,27.000000,0.000000
3708783.595045,12.000000,0.000000
3708783.601401,-62.000000,0.000000
3708783.601404,-85.000000,0.000000
3708783.608971,-84.000000,0.000000
3708783.608974,-67.000000,0.000000
3708783.615265,3.000000,0.000000
3708783.615271,26.000000,0.000000
3708783.634184,28.000000,0.000000
3708783.634195,7.000000,0.000000
3708783.634203,-63.000000,0.000000
3708783.634204,-86.000000,0.000000
3708783.640493,-83.000000,0.000000
3708783.640501,-67.000000,0.000000
3708783.646784,5.000000,0.000000
3708783.646787,25.000000,0.000000
3708783.655598,27.000000,0.000000
3708783.655600,15.000000,0.000000
3708783.663202,-64.000000,0.000000
3708783.663207,-85.000000,0.000000
3708783.669444,-86.000000,0.000000
3708783.669448,-68.000000,0.000000
3708783.678294,4.000000,0.000000
3708783.678297,24.000000,0.000000
3708783.687121,27.000000,0.000000
3708783.687127,11.000000,0.000000
3708783.697176,-63.000000,0.000000
3708783.697182,-81.000000,0.000000
3708783.703475,-85.000000,0.000000
3708783.703478,-69.000000,0.000000
3708783.712288,6.000000,0.000000
3708783.712291,26.000000,0.000000
3708783.721106,28.000000,0.000000
3708783.721110,11.000000,0.000000
3708783.726152,-62.000000,0.000000
3708783.726155,-82.000000,0.000000
3708783.734993,-83.000000,0.000000
3708783.734999,-67.000000,0.000000
3708783.753865,4.000000,0.000000
3708783.753870,25.000000,0.000000
3708783.753877,29.000000,0.000000
3708783.753878,9.000000,0.000000
3708783.760084,-64.000000,0.000000
3708783.760087,-84.000000,0.000000
3708783.771418,-85.000000,0.000000
3708783.771425,-64.000000,0.000000
3708783.775211,6.000000,0.000000
3708783.775213,24.000000,0.000000
3708783.784029,25.000000,0.000000
3708783.784032,12.000000,0.000000
3708783.790339,-61.000000,0.000000
3708783.790344,-82.000000,0.000000
3708783.799183,-88.000000,0.000000
3708783.799187,-71.000000,0.000000
3708783.824356,5.000000,0.000000
3708783.824362,26.000000,0.000000
3708783.838241,29.000000,0.000000
3708783.838245,11.000000,0.000000
3708783.839514,-61.000000,0.000000
3708783.839519,-85.000000,0.000000
3708783.840786,-84.000000,0.000000
3708783.840792,-68.000000,0.000000
3708783.844574,7.000000,0.000000
3708783.844577,26.000000,0.000000
3708783.847098,28.000000,0.000000
3708783.847101,10.000000,0.000000
3708783.859716,-62.000000,0.000000
3708783.859732,-81.000000,0.000000
3708783.863535,-83.000000,0.000000
3708783.863541,-68.000000,0.000000
3708783.871095,5.000000,0.000000
3708783.871098,23.000000,0.000000
3708783.890009,28.000000,0.000000
3708783.890013,9.000000,0.000000
3708783.890019,-66.000000,0.000000
3708783.890021,-86.000000,0.000000
3708783.896360,-84.000000,0.000000
3708783.896364,-68.000000,0.000000
3708783.902661,4.000000,0.000000
3708783.902667,27.000000,0.000000
3708783.911472,25.000000,0.000000
3708783.911475,8.000000,0.000000
3708783.930352,-60.000000,0.000000
3708783.930358,-85.000000,0.000000
3708783.930365,-84.000000,0.000000
3708783.930368,-69.000000,0.000000
3708783.936670,6.000000,0.000000
3708783.936673,25.000000,0.000000
3708783.948120,24.000000,0.000000
3708783.948143,9.000000,0.000000
3708783.950661,-60.000000,0.000000
3708783.950665,-83.000000,0.000000
3708783.982094,-83.000000,0.000000
3708783.982100,-68.000000,0.000000
3708783.984632,6.000000,0.000000
3708783.984636,26.000000,0.000000
3708783.985899,26.000000,0.000000
3708783.985902,9.000000,0.000000
3708783.987172,-64.000000,0.000000
3708783.987175,-86.000000,0.000000
3708783.990953,-87.000000,0.000000
3708783.990958,-71.000000,0.000000
3708783.999763,2.000000,0.000000
3708783.999769,29.000000,0.000000
3708784.006061,29.000000,0.000000
3708784.006067,8.000000,0.000000
3708784.014902,-64.000000,0.000000
3708784.014906,-85.000000,0.000000
3708784.027344,-85.000000,0.000000
3708784.027349,-68.000000,0.000000
3708784.031126,6.000000,0.000000
3708784.031131,27.000000,0.000000
3708784.050047,27.000000,0.000000
3708784.050052,11.000000,0.000000
3708784.050059,-62.000000,0.000000
3708784.050060,-82.000000,0.000000
3708784.055103,-84.000000,0.000000
3708784.055106,-70.000000,0.000000
3708784.065181,3.000000,0.000000
3708784.065186,24.000000,0.000000
3708784.070220,24.000000,0.000000
3708784.070223,9.000000,0.000000
3708784.079054,-62.000000,1.000000
3708784.079059,-86.000000,1.000000
3708784.087887,-83.000000,1.000000
3708784.087893,-67.000000,1.000000
3708784.096696,4.000000,1.000000
3708784.096699,29.000000,1.000000
3708784.103014,27.000000,1.000000
3708784.103020,9.000000,1.000000
3708784.128247,-62.000000,1.000000
3708784.128251,-83.000000,1.000000
3708784.137097,-85.000000,1.000000
3708784.137102,-67.000000,1.000000
3708784.138384,2.000000,1.000000
3708784.138387,27.000000,1.000000
3708784.142065,28.000000,1.000000
3708784.142076,11.000000,1.000000
3708784.144602,-62.000000,0.000000
3708784.144606,-85.000000,0.000000
3708784.152180,-85.000000,0.000000
3708784.152191,-66.000000,0.000000
3708784.171088,4.000000,0.000000
3708784.171093,26.000000,0.000000
3708784.171114,26.000000,0.000000
3708784.171116,10.000000,0.000000
3708784.176159,-62.000000,0.000000
3708784.176164,-86.000000,0.000000
3708784.182467,-84.000000,0.000000
3708784.182471,-69.000000,0.000000
3708784.191281,3.000000,0.000000
3708784.191286,28.000000,0.000000
3708784.203884,25.000000,0.000000
3708784.203891,11.000000,0.000000
3708784.207671,-63.000000,0.000000
3708784.207675,-83.000000,0.000000
3708784.215253,-83.000000,0.000000
3708784.215258,-67.000000,0.000000
3708784.224071,3.000000,0.000000
3708784.224078,24.000000,0.000000
3708784.230302,25.000000,0.000000
3708784.230305,10.000000,0.000000
3708784.239136,-62.000000,0.000000
3708784.239140,-84.000000,0.000000
3708784.247979,-85.000000,0.000000
3708784.247984,-72.000000,0.000000
3708784.256804,4.000000,0.000000
3708784.256818,25.000000,0.000000
3708784.263203,25.000000,0.000000
3708784.263206,11.000000,0.000000
3708784.272026,-62.000000,0.000000
3708784.272030,-82.000000,0.000000
3708784.283495,-85.000000,0.000000
3708784.283499,-69.000000,0.000000
3708784.287274,4.000000,0.000000
3708784.287277,27.000000,0.000000
3708784.296075,29.000000,0.000000
3708784.296078,13.000000,0.000000
3708784.313738,-60.000000,0.000000
3708784.313743,-83.000000,0.000000
3708784.313750,-84.000000,0.000000
3708784.313751,-65.000000,0.000000
3708784.320049,2.000000,0.000000
3708784.320055,26.000000,0.000000
3708784.328856,25.000000,0.000000
3708784.328860,10.000000,0.000000
3708784.335155,-59.000000,0.000000
3708784.335160,-82.000000,0.000000
3708784.355082,-84.000000,0.000000
3708784.355089,-68.000000,0.000000
3708784.355095,7.000000,0.000000
3708784.355111,29.000000,0.000000
3708784.360149,27.000000,0.000000
3708784.360152,11.000000,0.000000
3708784.366459,-63.000000,0.000000
3708784.366464,-83.000000,0.000000
3708784.377792,-83.000000,0.000000
3708784.377795,-66.000000,0.000000
3708784.384087,7.000000,0.000000
3708784.384092,27.000000,0.000000
3708784.390391,27.000000,0.000000
3708784.390397,10.000000,0.000000
3708784.397951,-60.000000,0.000000
3708784.397957,-83.000000,0.000000
3708784.425482,-84.000000,0.000000
3708784.425487,-66.000000,0.000000
3708784.438074,7.000000,0.000000
3708784.438080,27.000000,0.000000
3708784.439345,28.000000,0.000000
3708784.439348,10.000000,0.000000
3708784.440615,-62.000000,0.000000
3708784.440621,-82.000000,0.000000
3708784.443147,-85.000000,0.000000
3708784.443153,-69.000000,0.000000
3708784.446928,6.000000,0.000000
3708784.446930,29.000000,0.000000
3708784.458271,27.000000,0.000000
3708784.458277,11.000000,0.000000
3708784.463309,-62.000000,0.000000
3708784.463313,-84.000000,0.000000
3708784.482195,-84.000000,0.000000
3708784.482199,-68.000000,0.000000
3708784.482205,5.000000,0.000000
3708784.482207,31.000000,0.000000
3708784.485985,30.000000,0.000000
3708784.485991,15.000000,0.000000
3708784.496017,-60.000000,0.000000
3708784.496022,-83.000000,0.000000
3708784.504858,-83.000000,0.000000
3708784.504862,-65.000000,0.000000
3708784.511168,5.000000,0.000000
3708784.511171,24.000000,0.000000
3708784.519975,30.000000,0.000000
3708784.519981,14.000000,0.000000
3708784.527593,-61.000000,0.000000
3708784.527598,-85.000000,0.000000
3708784.536441,-82.000000,0.000000
3708784.536445,-64.000000,0.000000
3708784.542738,6.000000,0.000000
3708784.542741,27.000000,0.000000
3708784.551544,28.000000,0.000000
3708784.551547,15.000000,0.000000
3708784.560396,-59.000000,0.000000
3708784.560401,-82.000000,0.000000
3708784.565456,-84.000000,0.000000
3708784.565459,-68.000000,0.000000
3708784.579313,5.000000,0.000000
3708784.579315,28.000000,0.000000
3708784.582958,27.000000,0.000000
3708784.582964,13.000000,0.000000
3708784.590526,-60.000000,0.000000
3708784.590532,-84.000000,0.000000
3708784.599344,-84.000000,0.000000
3708784.599347,-64.000000,0.000000
3708784.608164,5.000000,0.000000
3708784.608170,28.000000,0.000000
3708784.627097,30.000000,0.000000
3708784.627102,12.000000,0.000000
3708784.627108,-60.000000,0.000000
3708784.627110,-83.000000,0.000000
3708784.630891,-83.000000,0.000000
3708784.630895,-67.000000,0.000000
3708784.642220,4.000000,0.000000
3708784.642226,28.000000,0.000000
3708784.646003,29.000000,0.000000
3708784.646006,10.000000,0.000000
3708784.654835,-61.000000,0.000000
3708784.654842,-80.000000,0.000000
3708784.663648,-85.000000,0.000000
3708784.663652,-69.000000,0.000000
3708784.669946,9.000000,0.000000
3708784.669952,29.000000,0.000000
3708784.678747,29.000000,0.000000
3708784.678749,11.000000,0.000000
3708784.688821,-59.000000,0.000000
3708784.688827,-80.000000,0.000000
3708784.696480,-80.000000,0.000000
3708784.696486,-69.000000,0.000000
3708784.705306,2.000000,0.000000
3708784.705313,31.000000,0.000000
3708784.724172,28.000000,0.000000
3708784.724177,12.000000,0.000000
3708784.738021,-61.000000,0.000000
3708784.738027,-84.000000,0.000000
3708784.739294,-81.000000,0.000000
3708784.739300,-68.000000,0.000000
3708784.743082,7.000000,0.000000
3708784.743088,28.000000,0.000000
3708784.744354,30.000000,0.000000
3708784.744357,14.000000,0.000000
3708784.751913,-61.000000,0.000000
3708784.751918,-80.000000,0.000000
3708784.770792,-82.000000,0.000000
3708784.770796,-66.000000,0.000000
3708784.770803,4.000000,0.000000
3708784.770806,29.000000,0.000000
3708784.775841,30.000000,0.000000
3708784.775844,11.000000,0.000000
3708784.785935,-60.000000,0.000000
3708784.785939,-81.000000,0.000000
3708784.790994,-82.000000,0.000000
3708784.791000,-66.000000,0.000000
3708784.801074,6.000000,0.000000
3708784.801078,26.000000,0.000000
3708784.807396,29.000000,0.000000
3708784.807410,14.000000,0.000000
3708784.816258,-62.000000,0.000000
3708784.816264,-85.000000,0.000000
3708784.823827,-86.000000,0.000000
3708784.823831,-69.000000,0.000000
3708784.832634,2.000000,0.000000
3708784.832640,24.000000,0.000000
3708784.838930,26.000000,0.000000
3708784.838936,9.000000,0.000000
3708784.847769,-62.000000,0.000000
3708784.847775,-85.000000,0.000000
3708784.856629,-83.000000,0.000000
3708784.856635,-66.000000,0.000000
3708784.862924,9.000000,0.000000
3708784.862927,30.000000,0.000000
3708784.871726,30.000000,0.000000
3708784.871730,14.000000,0.000000
3708784.882851,-61.000000,0.000000
3708784.882860,-82.000000,0.000000
3708784.886649,-80.000000,0.000000
3708784.886653,-65.000000,0.000000
3708784.905536,9.000000,0.000000
3708784.905543,32.000000,0.000000
3708784.905550,30.000000,0.000000
3708784.905551,15.000000,0.000000
3708784.911860,-60.000000,1.000000
3708784.911863,-83.000000,1.000000
3708784.920712,-81.000000,1.000000
3708784.920719,-64.000000,1.000000
3708784.927026,7.000000,1.000000
3708784.927031,28.000000,1.000000
3708784.935847,28.000000,1.000000
3708784.935850,14.000000,1.000000
3708784.944708,-58.000000,1.000000
3708784.944713,-79.000000,1.000000
3708784.951008,-80.000000,1.000000
3708784.951012,-63.000000,1.000000
3708784.958574,5.000000,1.000000
3708784.958578,30.000000,1.000000
3708784.969906,31.000000,1.000000
3708784.969912,13.000000,1.000000
3708784.976204,-57.000000,1.000000
3708784.976207,-80.000000,1.000000
3708784.983753,-79.000000,1.000000
3708784.983759,-65.000000,1.000000
3708784.992562,7.000000,1.000000
3708784.992567,29.000000,1.000000
3708785.001373,29.000000,1.000000
3708785.001379,14.000000,1.000000
3708785.025243,-59.000000,0.000000
3708785.025251,-81.000000,0.000000
3708785.037833,-82.000000,0.000000
3708785.037837,-66.000000,0.000000
3708785.039102,7.000000,0.000000
3708785.039106,29.000000,0.000000
3708785.040374,30.000000,0.000000
3708785.040377,13.000000,0.000000
3708785.044168,-63.000000,0.000000
3708785.044172,-81.000000,0.000000
3708785.046699,-82.000000,0.000000
3708785.046703,-65.000000,0.000000
3708785.054258,9.000000,0.000000
3708785.054264,28.000000,0.000000
3708785.063068,27.000000,0.000000
3708785.063071,13.000000,0.000000
3708785.070657,-56.000000,0.000000
3708785.070662,-78.000000,0.000000
3708785.079504,-82.000000,0.000000
3708785.079508,-67.000000,0.000000
3708785.086833,6.000000,0.000000
3708785.086835,28.000000,0.000000
3708785.095649,30.000000,0.000000
3708785.095652,10.000000,0.000000
3708785.104505,-60.000000,0.000000
3708785.104510,-80.000000,0.000000
3708785.113382,-81.000000,0.000000
3708785.113386,-65.000000,0.000000
3708785.119682,7.000000,0.000000
3708785.119684,28.000000,0.000000
3708785.131025,31.000000,0.000000
3708785.131034,10.000000,0.000000
3708785.136074,-62.000000,0.000000
3708785.136078,-83.000000,0.000000
3708785.142374,-84.000000,0.000000
3708785.142378,-65.000000,0.000000
3708785.151186,5.000000,0.000000
3708785.151192,26.000000,0.000000
3708785.170077,28.000000,0.000000
3708785.170081,11.000000,0.000000
3708785.170088,-60.000000,0.000000
3708785.170089,-83.000000,0.000000
3708785.175159,-83.000000,0.000000
3708785.175166,-66.000000,0.000000
3708785.182772,3.000000,0.000000
3708785.182778,28.000000,0.000000
3708785.191609,29.000000,0.000000
3708785.191612,11.000000,0.000000
3708785.200379,-60.000000,0.000000
3708785.200384,-82.000000,0.000000
3708785.206712,-80.000000,0.000000
3708785.206717,-65.000000,0.000000
3708785.215528,5.000000,0.000000
3708785.215533,28.000000,0.000000
3708785.224351,29.000000,0.000000
3708785.224357,12.000000,0.000000
3708785.230665,-60.000000,0.000000
3708785.230669,-81.000000,0.000000
3708785.260935,-85.000000,0.000000
3708785.260942,-67.000000,0.000000
3708785.262213,6.000000,0.000000
3708785.262218,26.000000,0.000000
3708785.263484,27.000000,0.000000
3708785.263488,10.000000,0.000000
3708785.264755,-62.000000,0.000000
3708785.264761,-85.000000,0.000000
3708785.273416,-86.000000,0.000000
3708785.273419,-68.000000,0.000000
3708785.279712,4.000000,0.000000
3708785.279715,30.000000,0.000000
3708785.298609,25.000000,0.000000
3708785.298615,10.000000,0.000000
3708785.298624,-61.000000,0.000000
3708785.298625,-83.000000,0.000000
3708785.302416,-84.000000,0.000000
3708785.302419,-69.000000,0.000000
3708785.323790,5.000000,0.000000
3708785.323796,26.000000,0.000000
3708785.338895,27.000000,0.000000
3708785.338900,11.000000,0.000000
3708785.338906,-61.000000,0.000000
3708785.338911,-82.000000,0.000000
3708785.341430,-84.000000,0.000000
3708785.341433,-68.000000,0.000000
3708785.343954,5.000000,0.000000
3708785.343957,26.000000,0.000000
3708785.352538,28.000000,0.000000
3708785.352544,11.000000,0.000000
3708785.361369,-65.000000,0.000000
3708785.361373,-82.000000,0.000000
3708785.366415,-83.000000,0.000000
3708785.366418,-67.000000,0.000000
3708785.376477,5.000000,0.000000
3708785.376480,25.000000,0.000000
3708785.387700,27.000000,0.000000
3708785.387705,12.000000,0.000000
3708785.390239,-60.000000,0.000000
3708785.390243,-83.000000,0.000000
3708785.399060,-84.000000,0.000000
3708785.399065,-68.000000,0.000000
3708785.407860,7.000000,0.000000
3708785.407863,28.000000,0.000000
3708785.416663,27.000000,0.000000
3708785.416666,11.000000,0.000000
3708785.423014,-61.000000,0.000000
3708785.423019,-82.000000,0.000000
3708785.431871,-85.000000,0.000000
3708785.431875,-67.000000,0.000000
3708785.450721,7.000000,0.000000
3708785.450726,26.000000,0.000000
3708785.450733,28.000000,0.000000
3708785.450735,12.000000,0.000000
3708785.457081,-59.000000,0.000000
3708785.457085,-84.000000,0.000000
3708785.463434,-84.000000,0.000000
3708785.463437,-68.000000,0.000000
3708785.474746,8.000000,0.000000
3708785.474749,28.000000,0.000000
3708785.481041,26.000000,0.000000
3708785.481046,13.000000,0.000000
3708785.487348,-59.000000,0.000000
3708785.487355,-84.000000,0.000000
3708785.496195,-84.000000,0.000000
3708785.496199,-65.000000,0.000000
3708785.504999,6.000000,0.000000
3708785.505002,27.000000,0.000000
3708785.511293,27.000000,0.000000
3708785.511295,11.000000,0.000000
3708785.520111,-63.000000,0.000000
3708785.520121,-82.000000,0.000000
3708785.527692,-86.000000,0.000000
3708785.527695,-67.000000,0.000000
3708785.536488,5.000000,0.000000
3708785.536491,26.000000,0.000000
3708785.544037,28.000000,0.000000
3708785.544040,10.000000,0.000000
3708785.554110,-64.000000,0.000000
3708785.554117,-85.000000,0.000000
3708785.560471,-85.000000,0.000000
3708785.560475,-67.000000,0.000000
3708785.566766,5.000000,0.000000
3708785.566773,24.000000,0.000000
3708785.575589,22.000000,0.000000
3708785.575592,9.000000,0.000000
3708785.594445,-63.000000,0.000000
3708785.594450,-83.000000,0.000000
3708785.594456,-85.000000,0.000000
3708785.594458,-72.000000,0.000000
3708785.600753,4.000000,0.000000
3708785.600758,27.000000,0.000000
3708785.623429,25.000000,0.000000
3708785.623434,10.000000,0.000000
3708785.637272,-64.000000,0.000000
3708785.637278,-86.000000,0.000000
3708785.638546,-86.000000,0.000000
3708785.638552,-70.000000,0.000000
3708785.639828,4.000000,0.000000
3708785.639834,28.000000,0.000000
3708785.643438,27.000000,0.000000
3708785.643444,8.000000,0.000000
3708785.648479,-62.000000,0.000000
3708785.648485,-85.000000,0.000000
3708785.657295,-85.000000,0.000000
3708785.657299,-66.000000,0.000000
3708785.666116,7.000000,0.000000
3708785.666121,27.000000,0.000000
3708785.672434,27.000000,0.000000
3708785.672436,9.000000,0.000000
3708785.681246,-63.000000,0.000000
3708785.681252,-83.000000,0.000000
3708785.686296,-86.000000,0.000000
3708785.686302,-71.000000,0.000000
3708785.695113,1.000000,0.000000
3708785.695116,27.000000,0.000000
3708785.710298,24.000000,0.000000
3708785.710304,3.000000,0.000000
3708785.711576,-67.000000,0.000000
3708785.711581,-88.000000,0.000000
3708785.721695,-85.000000,0.000000
3708785.721701,-70.000000,0.000000
3708785.727993,4.000000,0.000000
3708785.727996,26.000000,0.000000
3708785.743136,26.000000,0.000000
3708785.743141,7.000000,0.000000
3708785.743148,-61.000000,0.000000
3708785.743149,-82.000000,0.000000
3708785.760767,-84.000000,0.000000
3708785.760771,-65.000000,0.000000
3708785.760778,2.000000,0.000000
3708785.760779,27.000000,0.000000
3708785.767070,29.000000,0.000000
3708785.767076,11.000000,0.000000
3708785.774482,-60.000000,0.000000
3708785.774487,-82.000000,0.000000
3708785.783308,-84.000000,0.000000
3708785.783311,-66.000000,0.000000
3708785.792134,4.000000,0.000000
3708785.792138,27.000000,0.000000
3708785.800944,25.000000,0.000000
3708785.800950,9.000000,0.000000
3708785.807264,-62.000000,1.000000
3708785.807269,-80.000000,1.000000
3708785.817370,-83.000000,1.000000
3708785.817374,-69.000000,1.000000
3708785.823669,5.000000,1.000000
3708785.823675,26.000000,1.000000
3708785.832484,26.000000,1.000000
3708785.832489,7.000000,1.000000
3708785.838792,-61.000000,1.000000
3708785.838796,-83.000000,1.000000
3708785.847635,-84.000000,1.000000
3708785.847642,-67.000000,1.000000
3708785.866539,2.000000,1.000000
3708785.866545,23.000000,1.000000
3708785.867815,28.000000,1.000000
3708785.867828,13.000000,1.000000
3708785.870366,-63.000000,1.000000
3708785.870370,-84.000000,1.000000
3708785.879181,-84.000000,1.000000
3708785.879184,-69.000000,1.000000
3708785.888000,3.000000,1.000000
3708785.888005,26.000000,1.000000
3708785.901851,24.000000,1.000000
3708785.901856,11.000000,1.000000
3708785.924528,-60.000000,0.000000
3708785.924532,-85.000000,0.000000
3708785.924538,-85.000000,0.000000
3708785.924539,-68.000000,0.000000
3708785.938429,3.000000,0.000000
3708785.938433,26.000000,0.000000
3708785.938439,27.000000,0.000000
3708785.938440,12.000000,0.000000
3708785.940969,-63.000000,0.000000
3708785.940972,-85.000000,0.000000
3708785.943511,-87.000000,0.000000
3708785.943521,-70.000000,0.000000
3708785.951061,3.000000,0.000000
3708785.951068,26.000000,0.000000
3708785.961286,24.000000,0.000000
3708785.961290,8.000000,0.000000
3708785.967595,-64.000000,0.000000
3708785.967600,-84.000000,0.000000
3708785.975161,-84.000000,0.000000
3708785.975165,-70.000000,0.000000
3708785.983968,2.000000,0.000000
3708785.983973,25.000000,0.000000
3708785.995323,29.000000,0.000000
3708785.995328,12.000000,0.000000
3708785.999109,-63.000000,0.000000
3708785.999112,-85.000000,0.000000
3708786.007978,-83.000000,0.000000
3708786.007981,-67.000000,0.000000
3708786.026859,2.000000,0.000000
3708786.026863,24.000000,0.000000
3708786.026869,24.000000,0.000000
3708786.026870,9.000000,0.000000
3708786.030660,-61.000000,0.000000
3708786.030663,-85.000000,0.000000
3708786.040719,-88.000000,0.000000
3708786.040722,-71.000000,0.000000
3708786.048273,2.000000,0.000000
3708786.048276,25.000000,0.000000
3708786.054576,25.000000,0.000000
3708786.054581,8.000000,0.000000
3708786.063399,-64.000000,0.000000
3708786.063403,-87.000000,0.000000
3708786.070965,-86.000000,0.000000
3708786.070969,-70.000000,0.000000
3708786.082294,2.000000,0.000000
3708786.082299,24.000000,0.000000
3708786.086080,26.000000,0.000000
3708786.086085,10.000000,0.000000
3708786.094895,-66.000000,0.000000
3708786.094899,-87.000000,0.000000
3708786.104822,-90.000000,0.000000
3708786.104826,-72.000000,0.000000
3708786.113641,3.000000,0.000000
3708786.113644,24.000000,0.000000
3708786.119945,24.000000,0.000000
3708786.119961,7.000000,0.000000
3708786.127657,-64.000000,0.000000
3708786.127662,-87.000000,0.000000
3708786.147801,-85.000000,0.000000
3708786.147805,-71.000000,0.000000
3708786.147811,1.000000,0.000000
3708786.147812,23.000000,0.000000
3708786.150338,24.000000,0.000000
3708786.150343,10.000000,0.000000
3708786.159166,-65.000000,0.000000
3708786.159171,-87.000000,0.000000
3708786.170607,-85.000000,0.000000
3708786.170611,-69.000000,0.000000
3708786.176916,4.000000,0.000000
3708786.176922,26.000000,0.000000
3708786.185739,24.000000,0.000000
3708786.185743,6.000000,0.000000
3708786.192039,-63.000000,0.000000
3708786.192044,-86.000000,0.000000
3708786.199634,-87.000000,0.000000
3708786.199638,-70.000000,0.000000
3708786.224813,3.000000,0.000000
3708786.224818,25.000000,0.000000
3708786.237413,25.000000,0.000000
3708786.237419,7.000000,0.000000
3708786.238688,-67.000000,0.000000
3708786.238694,-85.000000,0.000000
3708786.239963,-85.000000,0.000000
3708786.239968,-72.000000,0.000000
3708786.243527,1.000000,0.000000
3708786.243530,23.000000,0.000000
3708786.247307,25.000000,0.000000
3708786.247310,7.000000,0.000000
3708786.259928,-65.000000,0.000000
3708786.259935,-84.000000,0.000000
3708786.263730,-87.000000,0.000000
3708786.263733,-69.000000,0.000000
3708786.272536,-2.000000,0.000000
3708786.272539,23.000000,0.000000
3708786.290142,25.000000,0.000000
3708786.290147,6.000000,0.000000
3708786.290153,-65.000000,0.000000
3708786.290154,-84.000000,0.000000
3708786.296469,-88.000000,0.000000
3708786.296474,-71.000000,0.000000
3708786.302765,2.000000,0.000000
3708786.302768,23.000000,0.000000
3708786.311568,24.000000,0.000000
3708786.311571,7.000000,0.000000
3708786.330482,-63.000000,0.000000
3708786.330488,-87.000000,0.000000
3708786.330495,-85.000000,0.000000
3708786.330496,-71.000000,0.000000
3708786.335628,-1.000000,0.000000
3708786.335631,23.000000,0.000000
3708786.348237,25.000000,0.000000
3708786.348243,10.000000,0.000000
3708786.350767,-63.000000,0.000000
3708786.350771,-87.000000,0.000000
3708786.363388,-86.000000,0.000000
3708786.363395,-70.000000,0.000000
3708786.365916,2.000000,0.000000
3708786.365922,25.000000,0.000000
3708786.374722,24.000000,0.000000
3708786.374725,6.000000,0.000000
3708786.383539,-61.000000,0.000000
3708786.383544,-85.000000,0.000000
3708786.392388,-88.000000,0.000000
3708786.392396,-69.000000,0.000000
3708786.398683,2.000000,0.000000
3708786.398686,25.000000,0.000000
3708786.408578,25.000000,0.000000
3708786.408582,9.000000,0.000000
3708786.427452,-64.000000,0.000000
3708786.427456,-83.000000,0.000000
3708786.427463,-84.000000,0.000000
3708786.427487,-70.000000,0.000000
3708786.431272,3.000000,0.000000
3708786.431277,23.000000,0.000000
3708786.442600,25.000000,0.000000
3708786.442605,9.000000,0.000000
3708786.446394,-66.000000,0.000000
3708786.446397,-88.000000,0.000000
3708786.455226,-86.000000,0.000000
3708786.455229,-71.000000,0.000000
3708786.464031,1.000000,0.000000
3708786.464034,23.000000,0.000000
3708786.472839,24.000000,0.000000
3708786.472843,9.000000,0.000000
3708786.479038,-66.000000,0.000000
3708786.479042,-86.000000,0.000000
3708786.487879,-86.000000,0.000000
3708786.487882,-70.000000,0.000000
3708786.496693,0.000000,0.000000
3708786.496696,21.000000,0.000000
3708786.502988,23.000000,0.000000
3708786.502994,7.000000,0.000000
3708786.524393,-66.000000,0.000000
3708786.524398,-89.000000,0.000000
3708786.549614,-88.000000,0.000000
3708786.549619,-73.000000,0.000000
3708786.563475,1.000000,0.000000
3708786.563478,23.000000,0.000000
3708786.564744,23.000000,0.000000
3708786.564747,3.000000,0.000000
3708786.566017,-66.000000,0.000000
3708786.566031,-87.000000,0.000000
3708786.569985,-88.000000,0.000000
3708786.569989,-73.000000,0.000000
3708786.571260,-1.000000,0.000000
3708786.571341,20.000000,0.000000
3708786.572654,23.000000,0.000000
3708786.572657,7.000000,0.000000
3708786.577701,-65.000000,0.000000
3708786.577706,-85.000000,0.000000
3708786.584018,-84.000000,0.000000
3708786.584022,-72.000000,0.000000
3708786.595345,1.000000,0.000000
3708786.595349,23.000000,0.000000
3708786.600386,23.000000,0.000000
3708786.600390,6.000000,0.000000
3708786.606694,-66.000000,0.000000
3708786.606699,-91.000000,0.000000
3708786.615500,-89.000000,0.000000
3708786.615503,-73.000000,0.000000
3708786.624306,-3.000000,0.000000
3708786.624311,21.000000,0.000000
3708786.629342,25.000000,0.000000
3708786.629345,7.000000,0.000000
3708786.639265,-67.000000,0.000000
3708786.639269,-87.000000,0.000000
3708786.648098,-87.000000,0.000000
3708786.648102,-71.000000,0.000000
3708786.656908,3.000000,0.000000
3708786.656912,24.000000,0.000000
3708786.663201,25.000000,0.000000
3708786.663204,9.000000,0.000000
3708786.674569,-63.000000,1.000000
3708786.674574,-87.000000,1.000000
3708786.679631,-86.000000,1.000000
3708786.679634,-69.000000,1.000000
3708786.685929,1.000000,1.000000
3708786.685935,24.000000,1.000000
3708786.694730,28.000000,1.000000
3708786.694733,9.000000,1.000000
3708786.708584,-65.000000,1.000000
3708786.708592,-85.000000,1.000000
3708786.712189,-86.000000,1.000000
3708786.712195,-73.000000,1.000000
3708786.719754,1.000000,1.000000
3708786.719759,22.000000,1.000000
3708786.728581,25.000000,1.000000
3708786.728585,6.000000,1.000000
3708786.747484,-65.000000,0.000000
3708786.747489,-88.000000,0.000000
3708786.747496,-87.000000,0.000000
3708786.747499,-71.000000,0.000000
3708786.753794,0.000000,0.000000
3708786.753801,22.000000,0.000000
3708786.758839,22.000000,0.000000
3708786.758842,8.000000,0.000000
3708786.770166,-64.000000,0.000000
3708786.770171,-88.000000,0.000000
3708786.776490,-87.000000,0.000000
3708786.776496,-71.000000,0.000000
3708786.782794,1.000000,0.000000
3708786.782800,20.000000,0.000000
3708786.791610,24.000000,0.000000
3708786.791613,8.000000,0.000000
3708786.800434,-67.000000,0.000000
3708786.800447,-88.000000,0.000000
3708786.824318,-89.000000,0.000000
3708786.824323,-72.000000,0.000000
3708786.838159,2.000000,0.000000
3708786.838163,24.000000,0.000000
3708786.839448,21.000000,0.000000
3708786.839452,5.000000,0.000000
3708786.840720,-67.000000,0.000000
3708786.840728,-88.000000,0.000000
3708786.843254,-89.000000,0.000000
3708786.843260,-72.000000,0.000000
3708786.848289,-1.000000,0.000000
3708786.848292,22.000000,0.000000
3708786.860929,23.000000,0.000000
3708786.860934,5.000000,0.000000
3708786.871009,-66.000000,0.000000
3708786.871012,-87.000000,0.000000
3708786.871019,-87.000000,0.000000
3708786.871020,-73.000000,0.000000
3708786.889904,-3.000000,0.000000
3708786.889910,22.000000,0.000000
3708786.889917,23.000000,0.000000
3708786.889918,5.000000,0.000000
3708786.897589,-67.000000,0.000000
3708786.897595,-89.000000,0.000000
3708786.905159,-89.000000,0.000000
3708786.905165,-71.000000,0.000000
3708786.911459,0.000000,0.000000
3708786.911462,21.000000,0.000000
3708786.920362,25.000000,0.000000
3708786.920367,7.000000,0.000000
3708786.926690,-69.000000,0.000000
3708786.926695,-89.000000,0.000000
3708786.935577,-88.000000,0.000000
3708786.935580,-71.000000,0.000000
3708786.944391,2.000000,0.000000
3708786.944394,22.000000,0.000000
3708786.953213,22.000000,0.000000
3708786.953220,6.000000,0.000000
3708786.959535,-65.000000,0.000000
3708786.959539,-87.000000,0.000000
3708786.967116,-89.000000,0.000000
3708786.967120,-73.000000,0.000000
3708786.975932,-2.000000,0.000000
3708786.975938,21.000000,0.000000
3708786.981994,23.000000,0.000000
3708786.982000,8.000000,0.000000
3708786.991909,-68.000000,0.000000
3708786.991914,-91.000000,0.000000
3708787.012057,-88.000000,0.000000
3708787.012060,-73.000000,0.000000
3708787.012067,0.000000,0.000000
3708787.012072,24.000000,0.000000
3708787.015849,23.000000,0.000000
3708787.015852,4.000000,0.000000
3708787.023447,-68.000000,0.000000
3708787.023452,-88.000000,0.000000
3708787.030997,-88.000000,0.000000
3708787.031001,-71.000000,0.000000
3708787.039814,1.000000,0.000000
3708787.039818,23.000000,0.000000
3708787.046107,24.000000,0.000000
3708787.046110,3.000000,0.000000
3708787.054981,-68.000000,0.000000
3708787.054987,-86.000000,0.000000
3708787.064886,-88.000000,0.000000
3708787.064889,-72.000000,0.000000
3708787.071198,0.000000,0.000000
3708787.071203,22.000000,0.000000
3708787.080021,23.000000,0.000000
3708787.080024,7.000000,0.000000
3708787.088840,-66.000000,0.000000
3708787.088844,-88.000000,0.000000
3708787.098932,-89.000000,0.000000
3708787.098935,-72.000000,0.000000
3708787.102751,2.000000,0.000000
3708787.102757,26.000000,0.000000
3708787.124166,23.000000,0.000000
3708787.124172,5.000000,0.000000
3708787.138003,-68.000000,0.000000
3708787.138007,-87.000000,0.000000
3708787.143045,-87.000000,0.000000
3708787.143048,-69.000000,0.000000
3708787.145587,-1.000000,0.000000
3708787.145592,21.000000,0.000000
3708787.146863,23.000000,0.000000
3708787.146867,5.000000,0.000000
3708787.150646,-67.000000,0.000000
3708787.150650,-89.000000,0.000000
3708787.160597,-88.000000,0.000000
3708787.160600,-71.000000,0.000000
3708787.166901,-3.000000,0.000000
3708787.166907,20.000000,0.000000
3708787.178270,23.000000,0.000000
3708787.178274,4.000000,0.000000
3708787.184569,-67.000000,0.000000
3708787.184576,-86.000000,0.000000
3708787.190890,-89.000000,0.000000
3708787.190896,-73.000000,0.000000
3708787.199699,1.000000,0.000000
3708787.199705,23.000000,0.000000
3708787.207255,22.000000,0.000000
3708787.207258,6.000000,0.000000
3708787.216082,-67.000000,0.000000
3708787.216086,-88.000000,0.000000
3708787.222305,-88.000000,0.000000
3708787.222309,-72.000000,0.000000
3708787.231106,0.000000,0.000000
3708787.231109,22.000000,0.000000
3708787.241194,22.000000,0.000000
3708787.241200,4.000000,0.000000
3708787.247494,-67.000000,0.000000
3708787.247500,-87.000000,0.000000
3708787.255075,-89.000000,0.000000
3708787.255079,-74.000000,0.000000
3708787.275253,-1.000000,0.000000
3708787.275260,22.000000,0.000000
3708787.275267,22.000000,0.000000
3708787.275268,4.000000,0.000000
3708787.280310,-70.000000,0.000000
3708787.280313,-92.000000,0.000000
3708787.289174,-93.000000,0.000000
3708787.289181,-72.000000,0.000000
3708787.295475,-2.000000,0.000000
3708787.295478,21.000000,0.000000
3708787.314435,21.000000,0.000000
3708787.314443,6.000000,0.000000
3708787.314452,-66.000000,0.000000
3708787.314454,-88.000000,0.000000
3708787.319499,-87.000000,0.000000
3708787.319503,-74.000000,0.000000
3708787.325788,0.000000,0.000000
3708787.325791,21.000000,0.000000
3708787.334596,23.000000,0.000000
3708787.334602,8.000000,0.000000
3708787.344715,-66.000000,0.000000
3708787.344719,-88.000000,0.000000
3708787.353528,-90.000000,0.000000
3708787.353535,-74.000000,0.000000
3708787.359833,0.000000,0.000000
3708787.359839,21.000000,0.000000
3708787.368646,21.000000,0.000000
3708787.368653,6.000000,0.000000
3708787.376217,-69.000000,0.000000
3708787.376221,-88.000000,0.000000
3708787.382523,-89.000000,0.000000
3708787.382528,-73.000000,0.000000
3708787.392604,2.000000,0.000000
3708787.392609,22.000000,0.000000
3708787.401425,20.000000,0.000000
3708787.401430,3.000000,0.000000
3708787.425123,-68.000000,0.000000
3708787.425132,-91.000000,0.000000
3708787.438999,-91.000000,0.000000
3708787.439005,-71.000000,0.000000
3708787.439012,1.000000,0.000000
3708787.439013,21.000000,0.000000
3708787.440281,22.000000,0.000000
3708787.440287,8.000000,0.000000
3708787.442827,-66.000000,0.000000
3708787.442830,-86.000000,0.000000
3708787.449146,-85.000000,0.000000
3708787.449154,-70.000000,0.000000
3708787.466769,1.000000,0.000000
3708787.466774,24.000000,0.000000
3708787.466781,26.000000,0.000000
3708787.466782,11.000000,0.000000
3708787.469310,-61.000000,0.000000
3708787.469314,-87.000000,0.000000
3708787.478120,-87.000000,0.000000
3708787.478125,-71.000000,0.000000
3708787.488090,2.000000,0.000000
3708787.488096,24.000000,0.000000
3708787.496915,25.000000,0.000000
3708787.496918,9.000000,0.000000
3708787.503244,-64.000000,1.000000
3708787.503249,-86.000000,1.000000
3708787.512008,-88.000000,1.000000
3708787.512012,-73.000000,1.000000
3708787.523341,3.000000,1.000000
3708787.523344,22.000000,1.000000
3708787.527127,20.000000,1.000000
3708787.527133,6.000000,1.000000
3708787.535963,-67.000000,1.000000
3708787.535968,-90.000000,1.000000
3708787.543567,-87.000000,1.000000
3708787.543571,-73.000000,1.000000
3708787.563695,0.000000,1.000000
3708787.563700,22.000000,1.000000
3708787.563707,22.000000,1.000000
3708787.563708,6.000000,1.000000
3708787.566233,-66.000000,1.000000
3708787.566237,-87.000000,1.000000
3708787.575066,-87.000000,1.000000
3708787.575072,-71.000000,1.000000
3708787.593764,2.000000,1.000000
3708787.593769,23.000000,1.000000
3708787.593776,23.000000,1.000000
3708787.593777,6.000000,1.000000
3708787.601323,-66.000000,0.000000
3708787.601327,-88.000000,0.000000
3708787.605220,-87.000000,0.000000
3708787.605236,-71.000000,0.000000
3708787.615359,-1.000000,0.000000
3708787.615363,21.000000,0.000000
3708787.623927,22.000000,0.000000
3708787.623930,5.000000,0.000000
3708787.630238,-65.000000,0.000000
3708787.630244,-88.000000,0.000000
3708787.638970,-89.000000,0.000000
3708787.638974,-72.000000,0.000000
3708787.647783,0.000000,0.000000
3708787.647786,21.000000,0.000000
3708787.656597,23.000000,0.000000
3708787.656603,5.000000,0.000000
3708787.661484,-67.000000,0.000000
3708787.661488,-87.000000,0.000000
3708787.671593,-87.000000,0.000000
3708787.671605,-74.000000,0.000000
3708787.680423,-1.000000,0.000000
3708787.680426,23.000000,0.000000
3708787.686720,23.000000,0.000000
3708787.686723,7.000000,0.000000
3708787.698081,-67.000000,0.000000
3708787.698085,-87.000000,0.000000
3708787.724524,-87.000000,0.000000
3708787.724530,-72.000000,0.000000
3708787.738412,1.000000,0.000000
3708787.738419,20.000000,0.000000
3708787.739686,21.000000,0.000000
3708787.739692,7.000000,0.000000
3708787.740959,-67.000000,0.000000
3708787.740961,-88.000000,0.000000
3708787.742228,-88.000000,0.000000
3708787.742234,-74.000000,0.000000
3708787.744757,0.000000,0.000000
3708787.744759,21.000000,0.000000
3708787.749794,22.000000,0.000000
3708787.749797,5.000000,0.000000
3708787.758672,-66.000000,0.000000
3708787.758677,-89.000000,0.000000
3708787.767538,-90.000000,0.000000
3708787.767542,-74.000000,0.000000
3708787.777607,-1.000000,0.000000
3708787.777611,20.000000,0.000000
3708787.783910,20.000000,0.000000
3708787.783915,5.000000,0.000000
3708787.792743,-68.000000,0.000000
3708787.792747,-91.000000,0.000000
3708787.827806,-89.000000,0.000000
3708787.827819,-73.000000,0.000000
3708787.830368,-1.000000,0.000000
3708787.830374,20.000000,0.000000
3708787.831641,21.000000,0.000000
3708787.831644,5.000000,0.000000
3708787.832914,-68.000000,0.000000
3708787.832920,-88.000000,0.000000
3708787.837711,-87.000000,0.000000
3708787.837713,-72.000000,0.000000
3708787.844005,-1.000000,0.000000
3708787.844011,22.000000,0.000000
3708787.846533,22.000000,0.000000
3708787.846536,3.000000,0.000000
3708787.872719,-67.000000,0.000000
3708787.872723,-89.000000,0.000000
3708787.872730,-91.000000,0.000000
3708787.872731,-74.000000,0.000000
3708787.873996,0.000000,0.000000
3708787.873999,22.000000,0.000000
3708787.879032,21.000000,0.000000
3708787.879035,4.000000,0.000000
3708787.887856,-67.000000,0.000000
3708787.887861,-88.000000,0.000000
3708787.894162,-89.000000,0.000000
3708787.894165,-73.000000,0.000000
3708787.902959,-2.000000,0.000000
3708787.902962,20.000000,0.000000
3708787.911764,22.000000,0.000000
3708787.911767,5.000000,0.000000
3708787.920685,-68.000000,0.000000
3708787.920692,-88.000000,0.000000
3708787.925752,-89.000000,0.000000
3708787.925755,-74.000000,0.000000
3708787.934566,1.000000,0.000000
3708787.934569,20.000000,0.000000
3708787.945877,18.000000,0.000000
3708787.945881,1.000000,0.000000
3708787.949661,-69.000000,0.000000
3708787.949665,-89.000000,0.000000
3708787.959709,-94.000000,0.000000
3708787.959716,-77.000000,0.000000
3708787.968532,-5.000000,0.000000
3708787.968537,18.000000,0.000000
3708787.987455,20.000000,0.000000
3708787.987471,2.000000,0.000000
3708787.987480,-68.000000,0.000000
3708787.987481,-89.000000,0.000000
3708787.991260,-90.000000,0.000000
3708787.991265,-74.000000,0.000000
3708788.000077,-3.000000,0.000000
3708788.000083,20.000000,0.000000
3708788.029009,21.000000,0.000000
3708788.029014,4.000000,0.000000
3708788.037826,-68.000000,0.000000
3708788.037829,-89.000000,0.000000
3708788.040429,-91.000000,0.000000
3708788.040432,-75.000000,0.000000
3708788.041707,-2.000000,0.000000
3708788.041711,20.000000,0.000000
3708788.042984,20.000000,0.000000
3708788.042988,4.000000,0.000000
3708788.048024,-68.000000,0.000000
3708788.048028,-94.000000,0.000000
3708788.056863,-91.000000,0.000000
3708788.056870,-74.000000,0.000000
3708788.063157,-4.000000,0.000000
3708788.063160,18.000000,0.000000
3708788.071967,17.000000,0.000000
3708788.071972,6.000000,0.000000
3708788.079537,-67.000000,0.000000
3708788.079542,-90.000000,0.000000
3708788.085846,-90.000000,0.000000
3708788.085858,-73.000000,0.000000
3708788.094661,-1.000000,0.000000
3708788.094664,20.000000,0.000000
3708788.104613,23.000000,0.000000
3708788.104617,5.000000,0.000000
3708788.115940,-67.000000,0.000000
3708788.115947,-90.000000,0.000000
3708788.119728,-90.000000,0.000000
3708788.119731,-72.000000,0.000000
3708788.128536,1.000000,0.000000
3708788.128538,20.000000,0.000000
3708788.147405,18.000000,0.000000
3708788.147410,5.000000,0.000000
3708788.147418,-67.000000,0.000000
3708788.147419,-88.000000,0.000000
3708788.149943,-88.000000,0.000000
3708788.149946,-75.000000,0.000000
3708788.158753,-3.000000,0.000000
3708788.158759,23.000000,0.000000
3708788.167556,21.000000,0.000000
3708788.167558,5.000000,0.000000
3708788.173875,-68.000000,0.000000
3708788.173879,-90.000000,0.000000
3708788.182732,-88.000000,0.000000
3708788.182736,-71.000000,0.000000
3708788.191542,0.000000,0.000000
3708788.191548,20.000000,0.000000
3708788.202877,24.000000,0.000000
3708788.202881,6.000000,0.000000
3708788.205413,-67.000000,0.000000
3708788.205417,-88.000000,0.000000
3708788.215508,-89.000000,0.000000
3708788.215513,-75.000000,0.000000
3708788.223092,-1.000000,0.000000
3708788.223095,22.000000,0.000000
3708788.233299,19.000000,0.000000
3708788.233303,4.000000,0.000000
3708788.239610,-69.000000,0.000000
3708788.239614,-93.000000,0.000000
3708788.248537,-88.000000,0.000000
3708788.248540,-72.000000,0.000000
3708788.267420,-1.000000,0.000000
3708788.267425,19.000000,0.000000
3708788.267432,20.000000,0.000000
3708788.267434,2.000000,0.000000
3708788.269957,-70.000000,0.000000
3708788.269962,-90.000000,0.000000
3708788.278788,-92.000000,0.000000
3708788.278791,-76.000000,0.000000
3708788.287596,-6.000000,0.000000
3708788.287599,21.000000,0.000000
3708788.324103,26.000000,0.000000
3708788.324108,7.000000,0.000000
3708788.324115,-73.000000,0.000000
3708788.324116,-92.000000,0.000000
3708788.337946,-90.000000,0.000000
3708788.337964,-74.000000,0.000000
3708788.339305,-2.000000,0.000000
3708788.339379,22.000000,0.000000
3708788.339415,24.000000,0.000000
3708788.339421,6.000000,0.000000
3708788.340693,-67.000000,0.000000
3708788.340696,-85.000000,0.000000
3708788.343220,-88.000000,0.000000
3708788.343224,-73.000000,0.000000
3708788.352048,1.000000,0.000000
3708788.352052,21.000000,0.000000
3708788.360875,22.000000,0.000000
3708788.360879,7.000000,0.000000
3708788.367228,-64.000000,0.000000
3708788.367234,-85.000000,0.000000
3708788.376050,-87.000000,0.000000
3708788.376054,-71.000000,0.000000
3708788.387387,2.000000,0.000000
3708788.387392,22.000000,0.000000
3708788.391174,23.000000,0.000000
3708788.391180,8.000000,0.000000
3708788.400021,-66.000000,0.000000
3708788.400025,-90.000000,0.000000
3708788.407619,-91.000000,0.000000
3708788.407622,-74.000000,0.000000
3708788.422729,2.000000,0.000000
3708788.422733,22.000000,0.000000
3708788.425262,24.000000,0.000000
3708788.425278,6.000000,0.000000
3708788.431585,-66.000000,1.000000
3708788.431592,-89.000000,1.000000
3708788.451760,-88.000000,1.000000
3708788.451767,-73.000000,1.000000
3708788.451773,-1.000000,1.000000
3708788.451776,24.000000,1.000000
3708788.456817,23.000000,1.000000
3708788.456823,5.000000,1.000000
3708788.463128,-67.000000,1.000000
3708788.463133,-90.000000,1.000000
3708788.471969,-88.000000,1.000000
3708788.471976,-73.000000,1.000000
3708788.480785,0.000000,1.000000
3708788.480788,22.000000,1.000000
3708788.487083,22.000000,1.000000
3708788.487089,4.000000,1.000000
3708788.494649,-69.000000,1.000000
3708788.494653,-89.000000,1.000000
3708788.503482,-90.000000,1.000000
3708788.503485,-72.000000,1.000000
3708788.512287,-2.000000,1.000000
3708788.512290,19.000000,1.000000
3708788.518641,21.000000,1.000000
3708788.518644,5.000000,1.000000
3708788.528703,-67.000000,0.000000
3708788.528707,-90.000000,0.000000
3708788.537654,-91.000000,0.000000
3708788.537659,-74.000000,0.000000
3708788.542716,-2.000000,0.000000
3708788.542721,21.000000,0.000000
3708788.554092,23.000000,0.000000
3708788.554097,6.000000,0.000000
3708788.560429,-67.000000,0.000000
3708788.560433,-90.000000,0.000000
3708788.569247,-89.000000,0.000000
3708788.569254,-73.000000,0.000000
3708788.575546,-3.000000,0.000000
3708788.575552,20.000000,0.000000
3708788.584363,22.000000,0.000000
3708788.584368,5.000000,0.000000
3708788.589409,-69.000000,0.000000
3708788.589417,-92.000000,0.000000
3708788.598257,-92.000000,0.000000
3708788.598260,-74.000000,0.000000
3708788.624509,-2.000000,0.000000
3708788.624514,20.000000,0.000000
3708788.638368,22.000000,0.000000
3708788.638371,4.000000,0.000000
3708788.639641,-68.000000,0.000000
3708788.639646,-89.000000,0.000000
3708788.640914,-91.000000,0.000000
3708788.640920,-73.000000,0.000000
3708788.643447,-2.000000,0.000000
3708788.643452,19.000000,0.000000
3708788.648495,21.000000,0.000000
3708788.648499,5.000000,0.000000
3708788.657317,-68.000000,0.000000
3708788.657364,-88.000000,0.000000
3708788.663656,-92.000000,0.000000
3708788.663659,-73.000000,0.000000
3708788.672476,-1.000000,0.000000
3708788.672482,19.000000,0.000000
3708788.691398,20.000000,0.000000
3708788.691404,5.000000,0.000000
3708788.691410,-68.000000,0.000000
3708788.691411,-91.000000,0.000000
3708788.696474,-92.000000,0.000000
3708788.696478,-74.000000,0.000000
3708788.702773,-1.000000,0.000000
3708788.702779,20.000000,0.000000
3708788.711583,22.000000,0.000000
3708788.711586,5.000000,0.000000
3708788.722916,-69.000000,0.000000
3708788.722921,-90.000000,0.000000
3708788.726722,-90.000000,0.000000
3708788.726725,-74.000000,0.000000
3708788.735534,-2.000000,0.000000
3708788.735537,20.000000,0.000000
3708788.743079,21.000000,0.000000
3708788.743085,4.000000,0.000000
3708788.750578,-68.000000,0.000000
3708788.750584,-90.000000,0.000000
3708788.759381,-93.000000,0.000000
3708788.759388,-74.000000,0.000000
3708788.768198,-1.000000,0.000000
3708788.768204,19.000000,0.000000
3708788.777025,21.000000,0.000000
3708788.777028,5.000000,0.000000
3708788.783326,-69.000000,0.000000
3708788.783332,-90.000000,0.000000
3708788.792173,-90.000000,0.000000
3708788.792177,-72.000000,0.000000
3708788.803498,-1.000000,0.000000
3708788.803503,20.000000,0.000000
3708788.807283,22.000000,0.000000
3708788.807289,5.000000,0.000000
3708788.816116,-69.000000,0.000000
3708788.816121,-90.000000,0.000000
3708788.833747,-89.000000,0.000000
3708788.833751,-74.000000,0.000000
3708788.833758,-2.000000,0.000000
3708788.833759,21.000000,0.000000
3708788.840050,21.000000,0.000000
3708788.840055,5.000000,0.000000
3708788.848923,-67.000000,0.000000
3708788.848928,-89.000000,0.000000
3708788.855249,-90.000000,0.000000
3708788.855252,-75.000000,0.000000
3708788.865078,-1.000000,0.000000
3708788.865084,21.000000,0.000000
3708788.871384,18.000000,0.000000
3708788.871389,3.000000,0.000000
3708788.878962,-67.000000,0.000000
3708788.878966,-87.000000,0.000000
3708788.887808,-88.000000,0.000000
3708788.887814,-76.000000,0.000000
3708788.896621,-1.000000,0.000000
3708788.896624,22.000000,0.000000
3708788.902915,23.000000,0.000000
3708788.902921,6.000000,0.000000
3708788.928096,-70.000000,1.000000
3708788.928101,-88.000000,1.000000
3708788.938196,-90.000000,1.000000
3708788.938202,-78.000000,1.000000
3708788.939471,-4.000000,1.000000
3708788.939474,18.000000,1.000000
3708788.940742,15.000000,1.000000
3708788.940746,-3.000000,1.000000
3708788.943273,-75.000000,1.000000
3708788.943276,-99.000000,1.000000
3708788.950740,-98.000000,1.000000
3708788.950781,-78.000000,1.000000
3708788.970746,-6.000000,1.000000
3708788.970752,16.000000,1.000000
3708788.970759,18.000000,1.000000
3708788.970760,-1.000000,1.000000
3708788.975803,-78.000000,1.000000
3708788.975808,-99.000000,1.000000
3708788.983168,-102.000000,1.000000
3708788.983171,-82.000000,1.000000
3708788.991982,-9.000000,1.000000
3708788.991988,8.000000,1.000000
3708789.010877,12.000000,1.000000
3708789.010882,-2.000000,1.000000
3708789.010888,-76.000000,1.000000
3708789.010889,-100.000000,1.000000
3708789.015935,-97.000000,1.000000
3708789.015940,-83.000000,1.000000
3708789.022232,-12.000000,1.000000
3708789.022238,9.000000,1.000000
3708789.031036,11.000000,1.000000
3708789.031039,-4.000000,1.000000
