# participant_id: Horizontal_FL
# gesture: custom
# trial_number: 2
# stream_name: BioRadio_Configuration
# timestamp: 20260430_095908
# samples: 3638
# duration_sec: 14.545
# nominal_sample_rate: 250.0
# effective_sample_rate: 250.05
#
timestamp,EMG1,GSR2
3708453.851713,58.000000,1.000000
3708453.851717,80.000000,1.000000
3708453.863035,80.000000,1.000000
3708453.863041,64.000000,1.000000
3708453.865568,-13.000000,1.000000
3708453.865575,-37.000000,1.000000
3708453.874459,-39.000000,1.000000
3708453.874465,-21.000000,1.000000
3708453.884561,59.000000,1.000000
3708453.884565,81.000000,1.000000
3708453.898596,82.000000,1.000000
3708453.898601,65.000000,1.000000
3708453.901128,-12.000000,1.000000
3708453.901134,-35.000000,1.000000
3708453.908521,-37.000000,1.000000
3708453.908525,-19.000000,1.000000
3708453.917360,56.000000,1.000000
3708453.917366,80.000000,1.000000
3708453.923660,83.000000,1.000000
3708453.923662,67.000000,1.000000
3708453.931219,-11.000000,1.000000
3708453.931228,-36.000000,1.000000
3708453.942594,-36.000000,1.000000
3708453.942598,-20.000000,1.000000
3708453.946382,55.000000,1.000000
3708453.946388,81.000000,1.000000
3708453.955192,82.000000,1.000000
3708453.955197,65.000000,1.000000
3708453.964005,-14.000000,1.000000
3708453.964010,-35.000000,1.000000
3708453.972737,-36.000000,1.000000
3708453.972751,-20.000000,1.000000
3708453.979053,56.000000,1.000000
3708453.979058,78.000000,1.000000
3708453.987871,80.000000,1.000000
3708453.987874,65.000000,1.000000
3708453.996691,-12.000000,1.000000
3708453.996695,-36.000000,1.000000
3708454.002991,-35.000000,1.000000
3708454.002997,-20.000000,1.000000
3708454.011811,57.000000,1.000000
3708454.011815,80.000000,1.000000
3708454.021893,81.000000,1.000000
3708454.021896,63.000000,1.000000
3708454.025689,-13.000000,1.000000
3708454.025694,-38.000000,1.000000
3708454.034521,-39.000000,1.000000
3708454.034525,-23.000000,1.000000
3708454.044673,54.000000,1.000000
3708454.044677,78.000000,1.000000
3708454.050975,80.000000,1.000000
3708454.050980,63.000000,1.000000
3708454.059814,-13.000000,1.000000
3708454.059820,-34.000000,1.000000
3708454.068637,-38.000000,1.000000
3708454.068642,-22.000000,1.000000
3708454.077472,57.000000,1.000000
3708454.077478,82.000000,1.000000
3708454.082517,82.000000,1.000000
3708454.082522,65.000000,1.000000
3708454.091343,-12.000000,1.000000
3708454.091347,-35.000000,1.000000
3708454.121558,-36.000000,1.000000
3708454.121564,-20.000000,1.000000
3708454.131642,56.000000,1.000000
3708454.131646,80.000000,1.000000
3708454.132910,82.000000,1.000000
3708454.132912,65.000000,1.000000
3708454.134185,-13.000000,1.000000
3708454.134188,-35.000000,1.000000
3708454.137997,-36.000000,1.000000
3708454.138000,-19.000000,1.000000
3708454.139264,56.000000,1.000000
3708454.139266,78.000000,1.000000
3708454.148066,81.000000,1.000000
3708454.148070,64.000000,1.000000
3708454.156923,-12.000000,1.000000
3708454.156929,-34.000000,1.000000
3708454.164502,-38.000000,1.000000
3708454.164507,-21.000000,1.000000
3708454.183370,55.000000,1.000000
3708454.183374,79.000000,1.000000
3708454.183381,81.000000,1.000000
3708454.183382,64.000000,1.000000
3708454.185913,-14.000000,1.000000
3708454.185920,-36.000000,1.000000
3708454.198565,-38.000000,1.000000
3708454.198582,-20.000000,1.000000
3708454.202372,55.000000,1.000000
3708454.202375,79.000000,1.000000
3708454.212446,80.000000,1.000000
3708454.212450,65.000000,1.000000
3708454.221271,-13.000000,1.000000
3708454.221276,-39.000000,1.000000
3708454.226389,-40.000000,1.000000
3708454.226393,-21.000000,1.000000
3708454.235237,55.000000,1.000000
3708454.235244,79.000000,1.000000
3708454.244058,81.000000,1.000000
3708454.244065,64.000000,1.000000
3708454.252894,-12.000000,1.000000
3708454.252900,-38.000000,1.000000
3708454.259194,-40.000000,1.000000
3708454.259207,-20.000000,1.000000
3708454.270526,57.000000,1.000000
3708454.270531,82.000000,1.000000
3708454.276837,81.000000,1.000000
3708454.276841,63.000000,1.000000
3708454.283150,-13.000000,1.000000
3708454.283154,-37.000000,1.000000
3708454.291995,-38.000000,1.000000
3708454.292010,-19.000000,1.000000
3708454.300847,58.000000,1.000000
3708454.300854,79.000000,1.000000
3708454.319757,78.000000,1.000000
3708454.319765,64.000000,1.000000
3708454.319775,-13.000000,1.000000
3708454.319776,-37.000000,1.000000
3708454.322316,-38.000000,1.000000
3708454.322322,-21.000000,1.000000
3708454.331143,55.000000,1.000000
3708454.331147,79.000000,1.000000
3708454.339951,81.000000,1.000000
3708454.339954,64.000000,1.000000
3708454.346250,-13.000000,1.000000
3708454.346256,-36.000000,1.000000
3708454.357604,-38.000000,1.000000
3708454.357608,-21.000000,1.000000
3708454.363919,55.000000,1.000000
3708454.363926,81.000000,1.000000
3708454.372716,78.000000,1.000000
3708454.372720,63.000000,1.000000
3708454.380307,-13.000000,1.000000
3708454.380314,-37.000000,1.000000
3708454.389128,-37.000000,1.000000
3708454.389133,-22.000000,1.000000
3708454.399219,56.000000,1.000000
3708454.399223,81.000000,1.000000
3708454.418119,80.000000,1.000000
3708454.418124,62.000000,1.000000
3708454.430711,-14.000000,1.000000
3708454.430716,-36.000000,1.000000
3708454.431983,-38.000000,1.000000
3708454.431988,-20.000000,1.000000
3708454.434538,56.000000,1.000000
3708454.434541,79.000000,1.000000
3708454.438396,81.000000,1.000000
3708454.438399,63.000000,1.000000
3708454.444715,-13.000000,1.000000
3708454.444720,-36.000000,1.000000
3708454.463600,-38.000000,1.000000
3708454.463604,-22.000000,1.000000
3708454.463612,56.000000,1.000000
3708454.463613,79.000000,1.000000
3708454.467402,79.000000,1.000000
3708454.467405,62.000000,1.000000
3708454.476276,-14.000000,1.000000
3708454.476281,-39.000000,1.000000
3708454.485136,-39.000000,1.000000
3708454.485140,-22.000000,1.000000
3708454.492712,56.000000,1.000000
3708454.492719,79.000000,1.000000
3708454.499020,79.000000,1.000000
3708454.499025,62.000000,1.000000
3708454.507868,-15.000000,1.000000
3708454.507873,-39.000000,1.000000
3708454.516701,-38.000000,1.000000
3708454.516705,-22.000000,1.000000
3708454.523005,54.000000,1.000000
3708454.523009,78.000000,1.000000
3708454.531832,79.000000,1.000000
3708454.531835,63.000000,1.000000
3708454.540697,-13.000000,1.000000
3708454.540703,-37.000000,1.000000
3708454.548305,-39.000000,1.000000
3708454.548309,-20.000000,1.000000
3708454.554605,58.000000,1.000000
3708454.554612,80.000000,1.000000
3708454.574305,81.000000,1.000000
3708454.574310,65.000000,1.000000
3708454.574318,-12.000000,1.000000
3708454.574320,-36.000000,1.000000
3708454.580612,-39.000000,1.000000
3708454.580627,-27.000000,1.000000
3708454.599530,46.000000,1.000000
3708454.599538,67.000000,1.000000
3708454.599544,64.000000,1.000000
3708454.599545,43.000000,1.000000
3708454.602085,-38.000000,1.000000
3708454.602091,-69.000000,1.000000
3708454.611931,-74.000000,1.000000
3708454.611934,-60.000000,1.000000
3708454.620749,8.000000,1.000000
3708454.620755,28.000000,1.000000
3708454.627045,24.000000,1.000000
3708454.627050,5.000000,1.000000
3708454.635870,-77.000000,1.000000
3708454.635876,-106.000000,1.000000
3708454.644714,-113.000000,1.000000
3708454.644718,-99.000000,1.000000
3708454.652294,-24.000000,1.000000
3708454.652300,-4.000000,1.000000
3708454.658588,-10.000000,1.000000
3708454.658592,-31.000000,1.000000
3708454.667450,-110.000000,1.000000
3708454.667456,-135.000000,1.000000
3708454.677528,-139.000000,1.000000
3708454.677532,-126.000000,1.000000
3708454.683703,-53.000000,1.000000
3708454.683708,-30.000000,1.000000
3708454.693796,-30.000000,1.000000
3708454.693799,-49.000000,1.000000
3708454.719007,-124.000000,1.000000
3708454.719015,-148.000000,1.000000
3708454.731375,-150.000000,1.000000
3708454.731381,-132.000000,1.000000
3708454.732647,-55.000000,1.000000
3708454.732652,-32.000000,1.000000
3708454.733927,-30.000000,1.000000
3708454.733931,-44.000000,1.000000
3708454.736458,-123.000000,1.000000
3708454.736462,-146.000000,1.000000
3708454.738999,-147.000000,1.000000
3708454.739003,-130.000000,1.000000
3708454.746574,-53.000000,1.000000
3708454.746580,-29.000000,1.000000
3708454.755113,-28.000000,1.000000
3708454.755128,-46.000000,1.000000
3708454.763975,-121.000000,1.000000
3708454.763981,-146.000000,1.000000
3708454.772818,-148.000000,1.000000
3708454.772822,-129.000000,1.000000
3708454.779118,-53.000000,1.000000
3708454.779124,-30.000000,1.000000
3708454.787954,-28.000000,1.000000
3708454.787957,-45.000000,1.000000
3708454.796897,-122.000000,1.000000
3708454.796902,-148.000000,1.000000
3708454.803208,-147.000000,1.000000
3708454.803213,-130.000000,1.000000
3708454.810781,-53.000000,1.000000
3708454.810786,-29.000000,1.000000
3708454.819603,-28.000000,1.000000
3708454.819608,-45.000000,1.000000
3708454.829578,-123.000000,1.000000
3708454.829590,-146.000000,1.000000
3708454.835918,-147.000000,1.000000
3708454.835922,-130.000000,1.000000
3708454.854806,-53.000000,1.000000
3708454.854810,-27.000000,1.000000
3708454.854817,-28.000000,1.000000
3708454.854818,-44.000000,1.000000
3708454.861119,-121.000000,1.000000
3708454.861123,-147.000000,1.000000
3708454.871233,-149.000000,1.000000
3708454.871238,-132.000000,1.000000
3708454.875022,-59.000000,1.000000
3708454.875028,-37.000000,1.000000
3708454.883839,-39.000000,1.000000
3708454.883842,-56.000000,1.000000
3708454.890156,-131.000000,1.000000
3708454.890161,-155.000000,1.000000
3708454.898975,-157.000000,1.000000
3708454.898979,-140.000000,1.000000
3708454.906541,-61.000000,1.000000
3708454.906544,-38.000000,1.000000
3708454.916691,-37.000000,1.000000
3708454.916694,-55.000000,1.000000
3708454.923064,-130.000000,1.000000
3708454.923070,-155.000000,1.000000
3708454.931894,-155.000000,1.000000
3708454.931898,-139.000000,1.000000
3708454.940707,-63.000000,1.000000
3708454.940711,-38.000000,1.000000
3708454.952057,-38.000000,1.000000
3708454.952062,-55.000000,1.000000
3708454.955860,-132.000000,1.000000
3708454.955864,-154.000000,1.000000
3708454.964695,-155.000000,1.000000
3708454.964699,-138.000000,1.000000
3708454.973507,-61.000000,1.000000
3708454.973511,-37.000000,1.000000
3708454.979807,-37.000000,1.000000
3708454.979813,-53.000000,1.000000
3708454.988643,-129.000000,1.000000
3708454.988650,-153.000000,1.000000
3708455.015147,-154.000000,1.000000
3708455.015154,-138.000000,1.000000
3708455.015160,-61.000000,1.000000
3708455.015161,-39.000000,1.000000
3708455.040208,-35.000000,1.000000
3708455.040214,-52.000000,1.000000
3708455.049033,-129.000000,1.000000
3708455.049040,-155.000000,1.000000
3708455.051600,-156.000000,1.000000
3708455.051604,-139.000000,1.000000
3708455.052870,-62.000000,1.000000
3708455.052873,-37.000000,1.000000
3708455.054152,-38.000000,1.000000
3708455.054156,-54.000000,1.000000
3708455.060451,-131.000000,1.000000
3708455.060455,-155.000000,1.000000
3708455.061726,-155.000000,1.000000
3708455.061730,-137.000000,1.000000
3708455.068039,-60.000000,1.000000
3708455.068044,-38.000000,1.000000
3708455.076921,-37.000000,1.000000
3708455.076925,-54.000000,1.000000
3708455.085755,-131.000000,1.000000
3708455.085760,-154.000000,1.000000
3708455.093330,-156.000000,1.000000
3708455.093333,-139.000000,1.000000
3708455.099697,-61.000000,1.000000
3708455.099701,-38.000000,1.000000
3708455.108508,-35.000000,1.000000
3708455.108512,-53.000000,1.000000
3708455.119857,-129.000000,1.000000
3708455.119862,-152.000000,1.000000
3708455.123639,-154.000000,1.000000
3708455.123642,-135.000000,1.000000
3708455.132450,-60.000000,1.000000
3708455.132456,-36.000000,1.000000
3708455.151337,-34.000000,1.000000
3708455.151341,-54.000000,1.000000
3708455.151348,-129.000000,1.000000
3708455.151349,-152.000000,1.000000
3708455.156411,-153.000000,1.000000
3708455.156421,-138.000000,1.000000
3708455.165230,-61.000000,1.000000
3708455.165237,-39.000000,1.000000
3708455.171536,-37.000000,1.000000
3708455.171543,-53.000000,1.000000
3708455.180358,-130.000000,1.000000
3708455.180363,-153.000000,1.000000
3708455.194224,-156.000000,1.000000
3708455.194229,-137.000000,1.000000
3708455.194235,-60.000000,1.000000
3708455.194236,-37.000000,1.000000
3708455.205560,-36.000000,1.000000
3708455.205564,-52.000000,1.000000
3708455.213143,-128.000000,1.000000
3708455.213149,-152.000000,1.000000
3708455.219451,-154.000000,1.000000
3708455.219455,-138.000000,1.000000
3708455.228265,-60.000000,1.000000
3708455.228271,-35.000000,1.000000
3708455.237089,-35.000000,1.000000
3708455.237093,-51.000000,1.000000
3708455.243504,-129.000000,1.000000
3708455.243510,-155.000000,1.000000
3708455.251071,-155.000000,1.000000
3708455.251076,-137.000000,1.000000
3708455.269934,-60.000000,1.000000
3708455.269938,-36.000000,1.000000
3708455.269945,-35.000000,1.000000
3708455.269946,-52.000000,1.000000
3708455.276246,-130.000000,1.000000
3708455.276251,-155.000000,1.000000
3708455.286232,-156.000000,1.000000
3708455.286237,-139.000000,1.000000
3708455.291270,-61.000000,1.000000
3708455.291273,-38.000000,1.000000
3708455.319009,-37.000000,1.000000
3708455.319016,-55.000000,1.000000
3708455.332848,-129.000000,1.000000
3708455.332852,-154.000000,1.000000
3708455.332858,-155.000000,1.000000
3708455.332859,-137.000000,1.000000
3708455.332865,-60.000000,1.000000
3708455.332866,-38.000000,1.000000
3708455.334136,-36.000000,1.000000
3708455.334140,-52.000000,1.000000
3708455.339259,-129.000000,1.000000
3708455.339264,-153.000000,1.000000
3708455.348082,-154.000000,1.000000
3708455.348086,-137.000000,1.000000
3708455.355636,-62.000000,1.000000
3708455.355639,-37.000000,1.000000
3708455.361928,-36.000000,1.000000
3708455.361931,-55.000000,1.000000
3708455.371920,-130.000000,1.000000
3708455.371930,-153.000000,1.000000
3708455.383295,-155.000000,1.000000
3708455.383299,-139.000000,1.000000
3708455.387083,-62.000000,1.000000
3708455.387086,-38.000000,1.000000
3708455.395903,-37.000000,1.000000
3708455.395907,-54.000000,1.000000
3708455.409802,-131.000000,1.000000
3708455.409807,-156.000000,1.000000
3708455.411089,-156.000000,1.000000
3708455.411093,-138.000000,1.000000
3708455.418649,-64.000000,1.000000
3708455.418654,-38.000000,1.000000
3708455.427458,-38.000000,1.000000
3708455.427461,-54.000000,1.000000
3708455.446399,-128.000000,1.000000
3708455.446403,-154.000000,1.000000
3708455.446409,-153.000000,1.000000
3708455.446410,-136.000000,1.000000
3708455.452707,-59.000000,1.000000
3708455.452713,-36.000000,1.000000
3708455.459001,-35.000000,1.000000
3708455.459004,-50.000000,1.000000
3708455.470471,-128.000000,1.000000
3708455.470478,-151.000000,1.000000
3708455.476818,-149.000000,1.000000
3708455.476822,-133.000000,1.000000
3708455.483110,-58.000000,1.000000
3708455.483116,-34.000000,1.000000
3708455.491925,-34.000000,1.000000
3708455.491928,-52.000000,1.000000
3708455.500765,-129.000000,1.000000
3708455.500771,-152.000000,1.000000
3708455.507074,-152.000000,1.000000
3708455.507078,-138.000000,1.000000
3708455.514642,-61.000000,1.000000
3708455.514647,-37.000000,1.000000
3708455.523466,-35.000000,1.000000
3708455.523470,-51.000000,1.000000
3708455.532297,-130.000000,1.000000
3708455.532302,-151.000000,1.000000
3708455.539646,-152.000000,1.000000
3708455.539651,-136.000000,1.000000
3708455.550970,-59.000000,1.000000
3708455.550974,-35.000000,1.000000
3708455.557283,-34.000000,1.000000
3708455.557286,-51.000000,1.000000
3708455.566136,-127.000000,1.000000
3708455.566141,-151.000000,1.000000
3708455.572447,-151.000000,1.000000
3708455.572451,-133.000000,1.000000
3708455.591350,-57.000000,1.000000
3708455.591355,-34.000000,1.000000
3708455.591362,-32.000000,1.000000
3708455.591363,-49.000000,1.000000
3708455.596436,-127.000000,1.000000
3708455.596441,-154.000000,1.000000
3708455.621595,-156.000000,1.000000
3708455.621600,-138.000000,1.000000
3708455.631674,-63.000000,1.000000
3708455.631680,-40.000000,1.000000
3708455.632956,-39.000000,1.000000
3708455.632962,-55.000000,1.000000
3708455.634227,-131.000000,0.000000
3708455.634231,-155.000000,0.000000
3708455.638052,-156.000000,0.000000
3708455.638055,-138.000000,0.000000
3708455.644359,-61.000000,0.000000
3708455.644365,-36.000000,0.000000
3708455.653181,-36.000000,0.000000
3708455.653184,-52.000000,0.000000
3708455.659488,-128.000000,0.000000
3708455.659496,-151.000000,0.000000
3708455.668321,-150.000000,0.000000
3708455.668327,-133.000000,0.000000
3708455.677132,-57.000000,0.000000
3708455.677137,-36.000000,0.000000
3708455.682173,-35.000000,0.000000
3708455.682179,-51.000000,0.000000
3708455.690997,-127.000000,1.000000
3708455.691004,-152.000000,1.000000
3708455.709953,-151.000000,1.000000
3708455.709961,-133.000000,1.000000
3708455.709968,-56.000000,1.000000
3708455.709969,-31.000000,1.000000
3708455.716276,-31.000000,1.000000
3708455.716280,-48.000000,1.000000
3708455.728782,-125.000000,1.000000
3708455.728787,-150.000000,1.000000
3708455.731310,-148.000000,1.000000
3708455.731314,-133.000000,1.000000
3708455.742635,-59.000000,1.000000
3708455.742639,-33.000000,1.000000
3708455.748936,-32.000000,1.000000
3708455.748939,-49.000000,1.000000
3708455.755269,-125.000000,1.000000
3708455.755275,-150.000000,1.000000
3708455.764117,-150.000000,1.000000
3708455.764121,-132.000000,1.000000
3708455.772927,-55.000000,1.000000
3708455.772930,-34.000000,1.000000
3708455.779226,-32.000000,1.000000
3708455.779233,-48.000000,1.000000
3708455.786801,-124.000000,1.000000
3708455.786807,-149.000000,1.000000
3708455.796838,-150.000000,1.000000
3708455.796843,-133.000000,1.000000
3708455.805677,-56.000000,1.000000
3708455.805680,-31.000000,1.000000
3708455.811979,-32.000000,1.000000
3708455.811983,-49.000000,1.000000
3708455.820805,-127.000000,1.000000
3708455.820810,-149.000000,1.000000
3708455.829624,-148.000000,1.000000
3708455.829630,-133.000000,1.000000
3708455.835935,-57.000000,1.000000
3708455.835941,-32.000000,1.000000
3708455.844749,-31.000000,1.000000
3708455.844755,-48.000000,1.000000
3708455.862398,-124.000000,1.000000
3708455.862404,-150.000000,1.000000
3708455.862410,-150.000000,1.000000
3708455.862411,-133.000000,1.000000
3708455.866197,-54.000000,1.000000
3708455.866203,-31.000000,1.000000
3708455.875005,-31.000000,1.000000
3708455.875008,-47.000000,1.000000
3708455.883921,-123.000000,1.000000
3708455.883930,-147.000000,1.000000
3708455.895263,-149.000000,1.000000
3708455.895269,-132.000000,1.000000
3708455.919194,-54.000000,1.000000
3708455.919210,-30.000000,1.000000
3708455.931811,-28.000000,1.000000
3708455.931814,-46.000000,1.000000
3708455.933080,-121.000000,1.000000
3708455.933083,-148.000000,1.000000
3708455.935610,-150.000000,1.000000
3708455.935612,-131.000000,1.000000
3708455.938138,-54.000000,1.000000
3708455.938144,-30.000000,1.000000
3708455.939419,-30.000000,1.000000
3708455.939422,-49.000000,1.000000
3708455.946986,-126.000000,0.000000
3708455.946991,-149.000000,0.000000
3708455.954572,-152.000000,0.000000
3708455.954576,-134.000000,0.000000
3708455.973444,-57.000000,0.000000
3708455.973449,-33.000000,0.000000
3708455.973456,-31.000000,0.000000
3708455.973457,-49.000000,0.000000
3708455.978498,-126.000000,0.000000
3708455.978503,-148.000000,0.000000
3708455.987383,-150.000000,0.000000
3708455.987387,-134.000000,0.000000
3708455.996207,-58.000000,0.000000
3708455.996212,-32.000000,0.000000
3708456.005043,-30.000000,0.000000
3708456.005048,-46.000000,0.000000
3708456.013862,-124.000000,1.000000
3708456.013879,-147.000000,1.000000
3708456.018925,-149.000000,1.000000
3708456.018929,-132.000000,1.000000
3708456.029073,-55.000000,1.000000
3708456.029081,-30.000000,1.000000
3708456.037711,-28.000000,1.000000
3708456.037715,-49.000000,1.000000
3708456.042785,-123.000000,1.000000
3708456.042793,-145.000000,1.000000
3708456.051653,-146.000000,1.000000
3708456.051665,-129.000000,1.000000
3708456.063011,-53.000000,1.000000
3708456.063019,-30.000000,1.000000
3708456.066799,-29.000000,1.000000
3708456.066804,-45.000000,1.000000
3708456.076893,-121.000000,1.000000
3708456.076900,-147.000000,1.000000
3708456.084475,-149.000000,1.000000
3708456.084480,-130.000000,1.000000
3708456.093284,-52.000000,1.000000
3708456.093288,-29.000000,1.000000
3708456.098342,-28.000000,1.000000
3708456.098348,-47.000000,1.000000
3708456.108312,-122.000000,1.000000
3708456.108332,-145.000000,1.000000
3708456.127193,-147.000000,1.000000
3708456.127201,-131.000000,1.000000
3708456.127207,-54.000000,1.000000
3708456.127209,-28.000000,1.000000
3708456.133510,-29.000000,1.000000
3708456.133516,-44.000000,1.000000
3708456.139830,-118.000000,1.000000
3708456.139835,-145.000000,1.000000
3708456.149917,-147.000000,1.000000
3708456.149921,-128.000000,1.000000
3708456.156233,-51.000000,1.000000
3708456.156236,-28.000000,1.000000
3708456.162525,-27.000000,1.000000
3708456.162528,-42.000000,1.000000
3708456.171355,-120.000000,1.000000
3708456.171360,-144.000000,1.000000
3708456.180186,-144.000000,1.000000
3708456.180213,-128.000000,1.000000
3708456.186564,-52.000000,1.000000
3708456.186569,-27.000000,1.000000
3708456.195373,-27.000000,1.000000
3708456.195378,-44.000000,1.000000
3708456.218091,-121.000000,1.000000
3708456.218096,-144.000000,1.000000
3708456.231949,-145.000000,1.000000
3708456.231954,-126.000000,1.000000
3708456.233261,-47.000000,1.000000
3708456.233266,-25.000000,1.000000
3708456.235804,-24.000000,1.000000
3708456.235807,-43.000000,1.000000
3708456.237086,-119.000000,1.000000
3708456.237090,-144.000000,1.000000
3708456.243417,-145.000000,1.000000
3708456.243421,-128.000000,1.000000
3708456.262279,-51.000000,1.000000
3708456.262286,-27.000000,1.000000
3708456.262292,-25.000000,1.000000
3708456.262298,-40.000000,1.000000
3708456.266250,-119.000000,1.000000
3708456.266256,-144.000000,1.000000
3708456.296502,-148.000000,1.000000
3708456.296508,-130.000000,1.000000
3708456.297787,-54.000000,1.000000
3708456.297791,-31.000000,1.000000
3708456.299071,-32.000000,1.000000
3708456.299075,-49.000000,1.000000
3708456.300344,-121.000000,0.000000
3708456.300347,-146.000000,0.000000
3708456.307975,-147.000000,0.000000
3708456.307984,-131.000000,0.000000
3708456.319111,-53.000000,0.000000
3708456.319116,-30.000000,0.000000
3708456.322899,-31.000000,0.000000
3708456.322902,-46.000000,0.000000
3708456.331755,-125.000000,1.000000
3708456.331764,-147.000000,1.000000
3708456.340586,-149.000000,1.000000
3708456.340590,-131.000000,1.000000
3708456.346890,-53.000000,1.000000
3708456.346894,-30.000000,1.000000
3708456.355726,-29.000000,1.000000
3708456.355729,-46.000000,1.000000
3708456.364556,-123.000000,1.000000
3708456.364561,-147.000000,1.000000
3708456.372141,-149.000000,1.000000
3708456.372145,-131.000000,1.000000
3708456.378450,-52.000000,1.000000
3708456.378454,-29.000000,1.000000
3708456.387264,-29.000000,1.000000
3708456.387268,-46.000000,1.000000
3708456.399749,-125.000000,1.000000
3708456.399771,-148.000000,1.000000
3708456.403563,-148.000000,1.000000
3708456.403566,-131.000000,1.000000
3708456.412377,-52.000000,1.000000
3708456.412383,-30.000000,1.000000
3708456.431280,-30.000000,1.000000
3708456.431285,-46.000000,1.000000
3708456.431291,-123.000000,1.000000
3708456.431292,-149.000000,1.000000
3708456.436343,-149.000000,1.000000
3708456.436346,-131.000000,1.000000
3708456.442645,-54.000000,1.000000
3708456.442651,-31.000000,1.000000
3708456.451453,-31.000000,1.000000
3708456.451455,-48.000000,1.000000
3708456.460305,-124.000000,1.000000
3708456.460310,-146.000000,1.000000
3708456.466608,-147.000000,1.000000
3708456.466611,-132.000000,1.000000
3708456.475194,-55.000000,1.000000
3708456.475201,-30.000000,1.000000
3708456.486529,-30.000000,1.000000
3708456.486532,-48.000000,1.000000
3708456.492838,-124.000000,1.000000
3708456.492844,-148.000000,1.000000
3708456.517992,-147.000000,1.000000
3708456.517996,-131.000000,1.000000
3708456.531843,-54.000000,1.000000
3708456.531849,-31.000000,1.000000
3708456.533114,-29.000000,1.000000
3708456.533117,-46.000000,1.000000
3708456.533122,-123.000000,1.000000
3708456.533124,-147.000000,1.000000
3708456.535692,-148.000000,1.000000
3708456.535695,-131.000000,1.000000
3708456.538283,-55.000000,1.000000
3708456.538285,-31.000000,1.000000
3708456.547127,-30.000000,1.000000
3708456.547131,-47.000000,1.000000
3708456.557270,-122.000000,1.000000
3708456.557287,-146.000000,1.000000
3708456.567378,-148.000000,1.000000
3708456.567384,-130.000000,1.000000
3708456.573676,-53.000000,1.000000
3708456.573679,-30.000000,1.000000
3708456.579975,-29.000000,1.000000
3708456.579979,-45.000000,1.000000
3708456.587537,-122.000000,1.000000
3708456.587542,-146.000000,1.000000
3708456.596385,-148.000000,1.000000
3708456.596389,-130.000000,1.000000
3708456.602686,-54.000000,1.000000
3708456.602692,-32.000000,1.000000
3708456.611495,-29.000000,1.000000
3708456.611500,-46.000000,1.000000
3708456.621357,-124.000000,1.000000
3708456.621362,-148.000000,1.000000
3708456.626407,-149.000000,1.000000
3708456.626422,-132.000000,1.000000
3708456.634147,-55.000000,1.000000
3708456.634150,-33.000000,1.000000
3708456.646805,-30.000000,1.000000
3708456.646809,-46.000000,1.000000
3708456.653138,-124.000000,1.000000
3708456.653143,-147.000000,1.000000
3708456.659450,-147.000000,1.000000
3708456.659455,-131.000000,1.000000
3708456.668270,-54.000000,1.000000
3708456.668277,-31.000000,1.000000
3708456.687246,-30.000000,1.000000
3708456.687251,-46.000000,1.000000
3708456.687260,-123.000000,1.000000
3708456.687261,-147.000000,1.000000
3708456.693561,-148.000000,1.000000
3708456.693565,-133.000000,1.000000
3708456.699866,-55.000000,1.000000
3708456.699872,-31.000000,1.000000
3708456.708690,-29.000000,1.000000
3708456.708693,-46.000000,1.000000
3708456.717560,-123.000000,1.000000
3708456.717576,-149.000000,1.000000
3708456.722708,-149.000000,1.000000
3708456.722712,-131.000000,1.000000
3708456.731524,-54.000000,1.000000
3708456.731530,-30.000000,1.000000
3708456.740339,-29.000000,1.000000
3708456.740342,-48.000000,1.000000
3708456.746656,-124.000000,1.000000
3708456.746664,-148.000000,1.000000
3708456.755511,-148.000000,1.000000
3708456.755516,-131.000000,1.000000
3708456.764343,-55.000000,1.000000
3708456.764348,-31.000000,1.000000
3708456.773163,-29.000000,1.000000
3708456.773166,-47.000000,1.000000
3708456.779487,-124.000000,1.000000
3708456.779494,-149.000000,1.000000
3708456.787086,-151.000000,1.000000
3708456.787092,-131.000000,1.000000
3708456.797012,-55.000000,1.000000
3708456.797016,-32.000000,1.000000
3708456.818568,-31.000000,1.000000
3708456.818573,-49.000000,1.000000
3708456.832428,-124.000000,1.000000
3708456.832434,-146.000000,1.000000
3708456.833699,-147.000000,1.000000
3708456.833702,-131.000000,1.000000
3708456.834969,-54.000000,1.000000
3708456.834975,-30.000000,1.000000
3708456.837507,-27.000000,1.000000
3708456.837510,-44.000000,1.000000
3708456.845075,-122.000000,1.000000
3708456.845080,-145.000000,1.000000
3708456.851383,-149.000000,1.000000
3708456.851387,-132.000000,1.000000
3708456.871500,-54.000000,1.000000
3708456.871505,-30.000000,1.000000
3708456.871511,-29.000000,1.000000
3708456.871513,-46.000000,1.000000
3708456.877821,-125.000000,1.000000
3708456.877829,-148.000000,1.000000
3708456.884123,-147.000000,1.000000
3708456.884132,-130.000000,1.000000
3708456.891707,-53.000000,1.000000
3708456.891710,-30.000000,1.000000
3708456.903052,-27.000000,1.000000
3708456.903055,-45.000000,1.000000
3708456.906849,-124.000000,1.000000
3708456.906855,-146.000000,1.000000
3708456.915692,-146.000000,1.000000
3708456.915697,-129.000000,1.000000
3708456.923262,-51.000000,1.000000
3708456.923265,-28.000000,1.000000
3708456.933344,-27.000000,1.000000
3708456.933348,-45.000000,1.000000
3708456.938394,-122.000000,1.000000
3708456.938399,-146.000000,1.000000
3708456.948454,-148.000000,1.000000
3708456.948460,-129.000000,1.000000
3708456.967338,-53.000000,1.000000
3708456.967344,-29.000000,1.000000
3708456.967350,-30.000000,1.000000
3708456.967359,-47.000000,1.000000
3708456.973666,-122.000000,1.000000
3708456.973671,-146.000000,1.000000
3708456.978719,-149.000000,1.000000
3708456.978723,-133.000000,1.000000
3708456.990058,-58.000000,1.000000
3708456.990063,-28.000000,1.000000
3708456.996366,-26.000000,1.000000
3708456.996370,-39.000000,1.000000
3708457.002706,-113.000000,1.000000
3708457.002712,-131.000000,1.000000
3708457.012547,-129.000000,1.000000
3708457.012551,-110.000000,1.000000
3708457.031438,-30.000000,1.000000
3708457.031444,-6.000000,1.000000
3708457.031450,0.000000,1.000000
3708457.031456,-12.000000,1.000000
3708457.036522,-87.000000,0.000000
3708457.036527,-106.000000,0.000000
3708457.042797,-104.000000,0.000000
3708457.042803,-84.000000,0.000000
3708457.051628,-2.000000,0.000000
3708457.051636,24.000000,0.000000
3708457.060472,28.000000,0.000000
3708457.060476,15.000000,0.000000
3708457.066839,-58.000000,1.000000
3708457.066845,-80.000000,1.000000
3708457.078105,-76.000000,1.000000
3708457.078110,-58.000000,1.000000
3708457.084442,15.000000,1.000000
3708457.084446,40.000000,1.000000
3708457.093262,43.000000,1.000000
3708457.093265,25.000000,1.000000
3708457.118533,-52.000000,1.000000
3708457.118539,-75.000000,1.000000
3708457.132397,-76.000000,1.000000
3708457.132411,-59.000000,1.000000
3708457.133693,17.000000,1.000000
3708457.133698,42.000000,1.000000
3708457.134969,43.000000,1.000000
3708457.134972,25.000000,1.000000
3708457.136236,-51.000000,1.000000
3708457.136242,-75.000000,1.000000
3708457.138765,-78.000000,1.000000
3708457.138768,-58.000000,1.000000
3708457.146314,19.000000,1.000000
3708457.146317,42.000000,1.000000
3708457.157637,43.000000,1.000000
3708457.157643,26.000000,1.000000
3708457.163944,-49.000000,1.000000
3708457.163961,-73.000000,1.000000
3708457.172685,-75.000000,1.000000
3708457.172689,-60.000000,1.000000
3708457.178999,17.000000,1.000000
3708457.179002,41.000000,1.000000
3708457.187809,42.000000,1.000000
3708457.187814,28.000000,1.000000
3708457.196660,-44.000000,1.000000
3708457.196670,-66.000000,1.000000
3708457.202982,-65.000000,1.000000
3708457.202988,-44.000000,1.000000
3708457.211821,38.000000,1.000000
3708457.211827,67.000000,1.000000
3708457.220636,72.000000,1.000000
3708457.220641,60.000000,1.000000
3708457.229464,-11.000000,0.000000
3708457.229469,-32.000000,0.000000
3708457.233255,-29.000000,0.000000
3708457.233261,-9.000000,0.000000
3708457.246931,75.000000,0.000000
3708457.246935,106.000000,0.000000
3708457.253230,110.000000,0.000000
3708457.253236,95.000000,0.000000
3708457.259549,23.000000,1.000000
3708457.259557,3.000000,1.000000
3708457.268395,8.000000,1.000000
3708457.268399,27.000000,1.000000
3708457.286011,106.000000,1.000000
3708457.286015,135.000000,1.000000
3708457.286021,141.000000,1.000000
3708457.286023,125.000000,1.000000
3708457.292325,49.000000,1.000000
3708457.292331,28.000000,1.000000
3708457.298589,29.000000,1.000000
3708457.298592,44.000000,1.000000
3708457.307535,121.000000,1.000000
3708457.307539,144.000000,1.000000
3708457.317609,147.000000,1.000000
3708457.317612,130.000000,1.000000
3708457.324002,52.000000,1.000000
3708457.324021,29.000000,1.000000
3708457.332799,29.000000,1.000000
3708457.332804,46.000000,1.000000
3708457.341623,122.000000,1.000000
3708457.341626,145.000000,1.000000
3708457.347929,148.000000,1.000000
3708457.347932,130.000000,1.000000
3708457.355537,52.000000,1.000000
3708457.355558,30.000000,1.000000
3708457.364487,29.000000,1.000000
3708457.364492,43.000000,1.000000
3708457.373299,120.000000,1.000000
3708457.373302,144.000000,1.000000
3708457.379606,145.000000,1.000000
3708457.379612,129.000000,1.000000
3708457.388442,51.000000,1.000000
3708457.388447,29.000000,1.000000
3708457.418639,27.000000,1.000000
3708457.418644,44.000000,1.000000
3708457.418650,121.000000,1.000000
3708457.418651,145.000000,1.000000
3708457.431291,145.000000,1.000000
3708457.431298,129.000000,1.000000
3708457.432568,53.000000,1.000000
3708457.432573,29.000000,1.000000
3708457.433837,29.000000,1.000000
3708457.433843,45.000000,1.000000
3708457.436363,121.000000,1.000000
3708457.436365,147.000000,1.000000
3708457.442655,145.000000,1.000000
3708457.442658,128.000000,1.000000
3708457.451480,51.000000,1.000000
3708457.451485,27.000000,1.000000
3708457.460334,28.000000,1.000000
3708457.460338,45.000000,1.000000
3708457.466652,120.000000,1.000000
3708457.466658,143.000000,1.000000
3708457.475466,146.000000,1.000000
3708457.475469,128.000000,1.000000
3708457.484307,50.000000,1.000000
3708457.484318,29.000000,1.000000
3708457.495693,30.000000,1.000000
3708457.495700,43.000000,1.000000
3708457.499481,118.000000,1.000000
3708457.499484,145.000000,1.000000
3708457.508313,144.000000,1.000000
3708457.508318,129.000000,1.000000
3708457.522257,53.000000,1.000000
3708457.522262,28.000000,1.000000
3708457.524797,26.000000,1.000000
3708457.524800,43.000000,1.000000
3708457.532354,119.000000,1.000000
3708457.532360,144.000000,1.000000
3708457.551289,149.000000,1.000000
3708457.551295,133.000000,1.000000
3708457.551301,59.000000,1.000000
3708457.551303,38.000000,1.000000
3708457.575224,41.000000,1.000000
3708457.575229,63.000000,1.000000
3708457.576501,144.000000,1.000000
3708457.576505,170.000000,1.000000
3708457.577772,173.000000,1.000000
3708457.577775,162.000000,1.000000
3708457.580308,88.000000,1.000000
3708457.580311,66.000000,1.000000
3708457.587881,67.000000,1.000000
3708457.587900,88.000000,1.000000
3708457.596713,167.000000,1.000000
3708457.596716,191.000000,1.000000
3708457.603011,193.000000,1.000000
3708457.603017,174.000000,1.000000
3708457.611839,98.000000,1.000000
3708457.611843,74.000000,1.000000
3708457.620683,73.000000,1.000000
3708457.620689,90.000000,1.000000
3708457.626990,167.000000,1.000000
3708457.626995,191.000000,1.000000
3708457.635823,191.000000,1.000000
3708457.635827,174.000000,1.000000
3708457.643391,97.000000,1.000000
3708457.643397,74.000000,1.000000
3708457.653255,73.000000,1.000000
3708457.653265,90.000000,1.000000
3708457.659561,168.000000,1.000000
3708457.659567,191.000000,1.000000
3708457.668386,192.000000,1.000000
3708457.668389,176.000000,1.000000
3708457.687290,97.000000,1.000000
3708457.687295,73.000000,1.000000
3708457.687301,73.000000,1.000000
3708457.687302,92.000000,1.000000
3708457.693599,168.000000,1.000000
3708457.693602,191.000000,1.000000
3708457.722569,191.000000,1.000000
3708457.722574,174.000000,1.000000
3708457.732646,96.000000,1.000000
3708457.732650,73.000000,1.000000
3708457.733921,74.000000,1.000000
3708457.733926,91.000000,1.000000
3708457.735196,167.000000,1.000000
3708457.735201,189.000000,1.000000
3708457.736470,191.000000,1.000000
3708457.736473,175.000000,1.000000
3708457.739027,98.000000,1.000000
3708457.739031,73.000000,1.000000
3708457.749099,72.000000,1.000000
3708457.749110,92.000000,1.000000
3708457.755417,168.000000,1.000000
3708457.755423,191.000000,1.000000
3708457.764229,192.000000,1.000000
3708457.764236,178.000000,1.000000
3708457.771790,101.000000,1.000000
3708457.771795,78.000000,1.000000
3708457.779177,79.000000,1.000000
3708457.779184,98.000000,1.000000
3708457.788011,177.000000,1.000000
3708457.788016,202.000000,1.000000
3708457.796828,204.000000,1.000000
3708457.796833,187.000000,1.000000
3708457.804408,111.000000,1.000000
3708457.804416,88.000000,1.000000
3708457.812009,86.000000,1.000000
3708457.812015,103.000000,1.000000
3708457.824592,180.000000,1.000000
3708457.824595,204.000000,1.000000
3708457.828383,206.000000,1.000000
3708457.828387,189.000000,1.000000
3708457.843517,112.000000,1.000000
3708457.843529,86.000000,1.000000
3708457.844821,86.000000,1.000000
3708457.844824,104.000000,1.000000
3708457.863709,179.000000,1.000000
3708457.863714,203.000000,1.000000
3708457.863720,205.000000,1.000000
3708457.863726,186.000000,1.000000
3708457.867525,109.000000,1.000000
3708457.867530,85.000000,1.000000
3708457.886412,85.000000,1.000000
3708457.886416,104.000000,1.000000
3708457.886422,175.000000,1.000000
3708457.886423,200.000000,1.000000
3708457.891453,203.000000,1.000000
3708457.891456,184.000000,1.000000
3708457.900287,106.000000,1.000000
3708457.900294,85.000000,1.000000
3708457.906634,83.000000,1.000000
3708457.906640,101.000000,1.000000
3708457.915446,178.000000,1.000000
3708457.915452,201.000000,1.000000
3708457.934325,201.000000,1.000000
3708457.934331,185.000000,1.000000
3708457.934337,109.000000,1.000000
3708457.934338,83.000000,1.000000
3708457.938131,82.000000,1.000000
3708457.938135,99.000000,1.000000
3708457.948188,175.000000,1.000000
3708457.948192,199.000000,1.000000
3708457.967094,201.000000,1.000000
3708457.967099,183.000000,1.000000
3708457.967105,108.000000,1.000000
3708457.967106,83.000000,1.000000
3708457.973465,80.000000,1.000000
3708457.973468,97.000000,1.000000
3708457.978503,173.000000,1.000000
3708457.978506,197.000000,1.000000
3708457.987313,198.000000,1.000000
3708457.987319,181.000000,1.000000
3708457.996136,105.000000,1.000000
3708457.996141,81.000000,1.000000
3708458.017573,80.000000,1.000000
3708458.017578,100.000000,1.000000
3708458.032487,176.000000,1.000000
3708458.032491,198.000000,1.000000
3708458.033760,198.000000,1.000000
3708458.033766,182.000000,1.000000
3708458.036292,107.000000,1.000000
3708458.036298,81.000000,1.000000
3708458.036304,80.000000,1.000000
3708458.036305,98.000000,1.000000
3708458.043874,172.000000,1.000000
3708458.043880,197.000000,1.000000
3708458.052684,201.000000,1.000000
3708458.052689,182.000000,1.000000
3708458.059103,104.000000,1.000000
3708458.059108,79.000000,1.000000
3708458.067951,79.000000,1.000000
3708458.067958,97.000000,1.000000
3708458.075505,173.000000,1.000000
3708458.075509,197.000000,1.000000
3708458.081796,199.000000,1.000000
3708458.081799,183.000000,1.000000
3708458.091984,105.000000,1.000000
3708458.091990,80.000000,1.000000
3708458.103386,81.000000,1.000000
3708458.103390,97.000000,1.000000
3708458.107174,173.000000,1.000000
3708458.107177,197.000000,1.000000
3708458.115997,199.000000,1.000000
3708458.116004,181.000000,1.000000
3708458.124841,105.000000,1.000000
3708458.124846,79.000000,1.000000
3708458.143697,80.000000,1.000000
3708458.143704,97.000000,1.000000
3708458.143710,174.000000,1.000000
3708458.143712,198.000000,1.000000
3708458.146237,196.000000,1.000000
3708458.146242,179.000000,1.000000
3708458.155060,104.000000,1.000000
3708458.155065,80.000000,1.000000
3708458.163949,79.000000,1.000000
3708458.163955,96.000000,1.000000
3708458.172761,172.000000,1.000000
3708458.172764,196.000000,1.000000
3708458.179049,198.000000,1.000000
3708458.179052,181.000000,1.000000
3708458.190241,102.000000,1.000000
3708458.190264,81.000000,1.000000
3708458.195429,80.000000,1.000000
3708458.195455,97.000000,1.000000
3708458.202944,173.000000,1.000000
3708458.202951,197.000000,1.000000
3708458.211772,198.000000,1.000000
3708458.211778,181.000000,1.000000
3708458.220644,105.000000,1.000000
3708458.220649,79.000000,1.000000
3708458.229379,81.000000,1.000000
3708458.229383,97.000000,1.000000
3708458.235680,173.000000,1.000000
3708458.235683,196.000000,1.000000
3708458.244494,199.000000,1.000000
3708458.244497,180.000000,1.000000
3708458.263159,104.000000,1.000000
3708458.263167,80.000000,1.000000
3708458.263173,80.000000,1.000000
3708458.263174,95.000000,1.000000
3708458.266957,173.000000,1.000000
3708458.266963,198.000000,1.000000
3708458.278285,198.000000,1.000000
3708458.278288,181.000000,1.000000
3708458.284589,105.000000,1.000000
3708458.284601,82.000000,1.000000
3708458.289653,79.000000,1.000000
3708458.289658,97.000000,1.000000
3708458.317305,175.000000,1.000000
3708458.317310,199.000000,1.000000
3708458.332328,201.000000,1.000000
3708458.332332,186.000000,1.000000
3708458.333607,111.000000,1.000000
3708458.333614,88.000000,1.000000
3708458.334889,88.000000,1.000000
3708458.334894,107.000000,1.000000
3708458.337428,183.000000,1.000000
3708458.337433,208.000000,1.000000
3708458.339966,209.000000,1.000000
3708458.339969,192.000000,1.000000
3708458.347569,116.000000,1.000000
3708458.347574,92.000000,1.000000
3708458.356570,91.000000,1.000000
3708458.356574,108.000000,1.000000
3708458.364132,182.000000,1.000000
3708458.364136,206.000000,1.000000
3708458.378022,208.000000,1.000000
3708458.378033,192.000000,1.000000
3708458.380585,115.000000,1.000000
3708458.380596,89.000000,1.000000
3708458.388155,87.000000,1.000000
3708458.388161,105.000000,1.000000
3708458.406917,185.000000,1.000000
3708458.406922,207.000000,1.000000
3708458.406929,209.000000,1.000000
3708458.406930,193.000000,1.000000
3708458.413240,113.000000,1.000000
3708458.413245,90.000000,1.000000
3708458.419559,91.000000,1.000000
3708458.419570,106.000000,1.000000
3708458.428391,183.000000,1.000000
3708458.428397,207.000000,1.000000
3708458.437220,208.000000,1.000000
3708458.437223,191.000000,1.000000
3708458.443533,114.000000,1.000000
3708458.443538,90.000000,1.000000
3708458.452489,89.000000,1.000000
3708458.452493,107.000000,1.000000
3708458.461316,182.000000,1.000000
3708458.461319,207.000000,1.000000
3708458.467616,207.000000,1.000000
3708458.467620,189.000000,1.000000
3708458.476464,113.000000,1.000000
3708458.476471,88.000000,1.000000
3708458.484077,88.000000,1.000000
3708458.484109,106.000000,1.000000
3708458.492927,182.000000,1.000000
3708458.492930,206.000000,1.000000
3708458.499234,208.000000,1.000000
3708458.499239,189.000000,1.000000
3708458.509387,113.000000,1.000000
3708458.509391,89.000000,1.000000
3708458.527020,89.000000,1.000000
3708458.527027,106.000000,1.000000
3708458.527033,180.000000,1.000000
3708458.527034,204.000000,1.000000
3708458.532077,204.000000,1.000000
3708458.532081,189.000000,1.000000
3708458.539696,113.000000,1.000000
3708458.539701,89.000000,1.000000
3708458.548517,87.000000,1.000000
3708458.548521,104.000000,1.000000
3708458.566030,180.000000,1.000000
3708458.566035,207.000000,1.000000
3708458.566042,207.000000,1.000000
3708458.566043,191.000000,1.000000
3708458.572368,116.000000,1.000000
3708458.572373,94.000000,1.000000
3708458.578689,93.000000,1.000000
3708458.578693,112.000000,1.000000
3708458.588586,189.000000,1.000000
3708458.588589,213.000000,1.000000
3708458.597405,214.000000,1.000000
3708458.597408,197.000000,1.000000
3708458.618849,120.000000,1.000000
3708458.618865,97.000000,1.000000
3708458.632714,98.000000,1.000000
3708458.632724,114.000000,1.000000
3708458.633994,189.000000,1.000000
3708458.633998,213.000000,1.000000
3708458.636524,214.000000,1.000000
3708458.636528,197.000000,1.000000
3708458.636534,123.000000,1.000000
3708458.636535,98.000000,1.000000
3708458.644096,96.000000,1.000000
3708458.644103,114.000000,1.000000
3708458.662720,193.000000,1.000000
3708458.662724,214.000000,1.000000
3708458.662731,212.000000,1.000000
3708458.662734,197.000000,1.000000
3708458.666518,124.000000,1.000000
3708458.666522,97.000000,1.000000
3708458.675389,97.000000,1.000000
3708458.675393,115.000000,1.000000
3708458.684210,192.000000,1.000000
3708458.684214,215.000000,1.000000
3708458.703103,216.000000,1.000000
3708458.703110,200.000000,1.000000
3708458.703116,121.000000,1.000000
3708458.703118,97.000000,1.000000
3708458.706899,98.000000,1.000000
3708458.706902,114.000000,1.000000
3708458.715711,191.000000,1.000000
3708458.715717,215.000000,1.000000
3708458.724528,217.000000,1.000000
3708458.724531,202.000000,1.000000
3708458.733416,125.000000,1.000000
3708458.733422,102.000000,1.000000
3708458.738489,101.000000,1.000000
3708458.738497,117.000000,1.000000
3708458.747345,192.000000,1.000000
3708458.747349,216.000000,1.000000
3708458.756148,218.000000,1.000000
3708458.756151,199.000000,1.000000
3708458.762454,122.000000,1.000000
3708458.762459,98.000000,1.000000
3708458.772405,98.000000,1.000000
3708458.772422,116.000000,1.000000
3708458.781255,192.000000,1.000000
3708458.781260,216.000000,1.000000
3708458.790090,217.000000,1.000000
3708458.790093,199.000000,1.000000
3708458.795135,123.000000,1.000000
3708458.795140,99.000000,1.000000
3708458.806480,96.000000,1.000000
3708458.806485,116.000000,1.000000
3708458.812788,194.000000,1.000000
3708458.812794,215.000000,1.000000
3708458.819095,215.000000,1.000000
3708458.819100,198.000000,1.000000
3708458.827930,123.000000,1.000000
3708458.827938,99.000000,1.000000
3708458.855482,96.000000,1.000000
3708458.855488,113.000000,1.000000
3708458.855495,190.000000,1.000000
3708458.855496,214.000000,1.000000
3708458.858038,214.000000,1.000000
3708458.858043,199.000000,1.000000
3708458.860646,121.000000,1.000000
3708458.860650,99.000000,1.000000
3708458.866977,99.000000,1.000000
3708458.866981,115.000000,1.000000
3708458.874529,192.000000,1.000000
3708458.874532,217.000000,1.000000
3708458.887110,216.000000,1.000000
3708458.887116,201.000000,1.000000
3708458.893513,124.000000,1.000000
3708458.893518,101.000000,1.000000
3708458.922487,100.000000,1.000000
3708458.922493,116.000000,1.000000
3708458.931315,193.000000,1.000000
3708458.931327,218.000000,1.000000
3708458.932603,219.000000,1.000000
3708458.932607,202.000000,1.000000
3708458.933878,128.000000,1.000000
3708458.933881,105.000000,1.000000
3708458.937667,101.000000,1.000000
3708458.937682,113.000000,1.000000
3708458.938951,187.000000,1.000000
3708458.938957,211.000000,1.000000
3708458.947775,209.000000,1.000000
3708458.947779,191.000000,1.000000
3708458.955421,116.000000,1.000000
3708458.955426,93.000000,1.000000
3708458.966730,92.000000,1.000000
3708458.966733,108.000000,1.000000
3708458.973027,182.000000,1.000000
3708458.973030,206.000000,1.000000
3708458.979337,209.000000,1.000000
3708458.979343,191.000000,1.000000
3708458.988183,114.000000,1.000000
3708458.988188,91.000000,1.000000
3708458.997002,90.000000,1.000000
3708458.997007,107.000000,1.000000
3708459.003318,184.000000,1.000000
3708459.003323,208.000000,1.000000
3708459.011929,210.000000,1.000000
3708459.011933,190.000000,1.000000
3708459.020621,117.000000,1.000000
3708459.020639,92.000000,1.000000
3708459.026946,92.000000,1.000000
3708459.026950,108.000000,1.000000
3708459.035762,186.000000,1.000000
3708459.035766,208.000000,1.000000
3708459.046854,208.000000,1.000000
3708459.046858,194.000000,1.000000
3708459.053235,118.000000,1.000000
3708459.053240,91.000000,1.000000
3708459.059538,91.000000,1.000000
3708459.059543,108.000000,1.000000
3708459.067100,184.000000,1.000000
3708459.067107,209.000000,1.000000
3708459.087322,209.000000,1.000000
3708459.087328,192.000000,1.000000
3708459.087335,115.000000,1.000000
3708459.087336,90.000000,1.000000
3708459.092383,90.000000,1.000000
3708459.092391,107.000000,1.000000
3708459.098709,184.000000,1.000000
3708459.098717,209.000000,1.000000
3708459.107526,211.000000,1.000000
3708459.107530,193.000000,1.000000
3708459.127718,116.000000,1.000000
3708459.127722,92.000000,1.000000
3708459.127728,91.000000,1.000000
3708459.127729,107.000000,1.000000
3708459.132767,185.000000,1.000000
3708459.132771,210.000000,1.000000
3708459.139072,212.000000,1.000000
3708459.139075,192.000000,1.000000
3708459.147925,116.000000,1.000000
3708459.147930,93.000000,1.000000
3708459.156745,90.000000,1.000000
3708459.156749,108.000000,1.000000
3708459.163050,185.000000,1.000000
3708459.163053,210.000000,1.000000
3708459.171865,210.000000,1.000000
3708459.171870,195.000000,1.000000
3708459.180683,118.000000,1.000000
3708459.180688,94.000000,1.000000
3708459.186985,93.000000,1.000000
3708459.186991,110.000000,1.000000
3708459.194566,185.000000,1.000000
3708459.194572,206.000000,1.000000
3708459.217222,204.000000,1.000000
3708459.217227,187.000000,1.000000
3708459.232200,111.000000,1.000000
3708459.232205,87.000000,1.000000
3708459.233473,86.000000,1.000000
3708459.233479,102.000000,1.000000
3708459.236004,181.000000,1.000000
3708459.236007,204.000000,1.000000
3708459.237276,205.000000,1.000000
3708459.237279,187.000000,1.000000
3708459.244941,110.000000,1.000000
3708459.244946,87.000000,1.000000
3708459.262567,86.000000,1.000000
3708459.262572,103.000000,1.000000
3708459.262579,180.000000,1.000000
3708459.262580,204.000000,1.000000
3708459.266363,206.000000,1.000000
3708459.266369,188.000000,1.000000
3708459.275200,111.000000,1.000000
3708459.275206,87.000000,1.000000
3708459.285154,86.000000,1.000000
3708459.285161,102.000000,1.000000
3708459.290263,180.000000,1.000000
3708459.290270,204.000000,1.000000
3708459.299129,204.000000,1.000000
3708459.299135,188.000000,1.000000
3708459.310611,111.000000,1.000000
3708459.310618,86.000000,1.000000
3708459.317023,87.000000,1.000000
3708459.317028,106.000000,1.000000
3708459.323436,181.000000,1.000000
3708459.323441,206.000000,1.000000
3708459.332272,207.000000,1.000000
3708459.332276,190.000000,1.000000
3708459.341125,112.000000,1.000000
3708459.341132,88.000000,1.000000
3708459.349946,89.000000,1.000000
3708459.349960,105.000000,1.000000
3708459.355004,180.000000,1.000000
3708459.355009,204.000000,1.000000
3708459.373897,206.000000,1.000000
3708459.373903,188.000000,1.000000
3708459.373919,111.000000,1.000000
3708459.373921,87.000000,1.000000
3708459.380243,86.000000,1.000000
3708459.380247,104.000000,1.000000
3708459.399119,180.000000,1.000000
3708459.399125,202.000000,1.000000
3708459.399132,205.000000,1.000000
3708459.399133,186.000000,1.000000
3708459.402916,112.000000,1.000000
3708459.402922,87.000000,1.000000
3708459.409296,87.000000,1.000000
3708459.409300,104.000000,1.000000
3708459.419376,179.000000,1.000000
3708459.419381,203.000000,1.000000
3708459.429470,204.000000,1.000000
3708459.429476,187.000000,1.000000
3708459.438317,110.000000,1.000000
3708459.438324,87.000000,1.000000
3708459.443372,87.000000,1.000000
3708459.443375,103.000000,1.000000
3708459.452193,179.000000,1.000000
3708459.452199,202.000000,1.000000
3708459.461012,206.000000,1.000000
3708459.461016,188.000000,1.000000
3708459.466080,110.000000,1.000000
3708459.466090,86.000000,1.000000
3708459.474946,85.000000,1.000000
3708459.474950,103.000000,1.000000
3708459.483681,181.000000,1.000000
3708459.483684,204.000000,1.000000
3708459.493786,205.000000,1.000000
3708459.493791,189.000000,1.000000
3708459.518998,111.000000,1.000000
3708459.519004,86.000000,1.000000
3708459.531413,86.000000,1.000000
3708459.531418,103.000000,1.000000
3708459.532691,180.000000,1.000000
3708459.532695,204.000000,1.000000
3708459.533962,204.000000,1.000000
3708459.533965,188.000000,1.000000
3708459.536494,111.000000,1.000000
3708459.536498,86.000000,1.000000
3708459.539019,86.000000,1.000000
3708459.539022,103.000000,1.000000
3708459.547628,180.000000,1.000000
3708459.547634,202.000000,1.000000
3708459.556454,203.000000,1.000000
3708459.556457,187.000000,1.000000
3708459.566549,112.000000,1.000000
3708459.566565,88.000000,1.000000
3708459.572881,87.000000,1.000000
3708459.572886,104.000000,1.000000
3708459.579188,180.000000,1.000000
3708459.579193,203.000000,1.000000
3708459.588008,205.000000,1.000000
3708459.588012,189.000000,1.000000
3708459.596826,111.000000,1.000000
3708459.596831,87.000000,1.000000
3708459.603140,86.000000,1.000000
3708459.603144,103.000000,1.000000
3708459.611958,180.000000,1.000000
3708459.611964,202.000000,1.000000
3708459.620780,204.000000,1.000000
3708459.620783,189.000000,1.000000
3708459.629615,112.000000,1.000000
3708459.629621,87.000000,1.000000
3708459.634691,86.000000,1.000000
3708459.634695,102.000000,1.000000
3708459.653561,180.000000,1.000000
3708459.653566,203.000000,1.000000
3708459.653572,204.000000,1.000000
3708459.653573,187.000000,1.000000
3708459.660994,111.000000,1.000000
3708459.660999,86.000000,1.000000
3708459.679897,85.000000,1.000000
3708459.679905,103.000000,1.000000
3708459.679912,181.000000,1.000000
3708459.679914,205.000000,1.000000
3708459.683696,206.000000,1.000000
3708459.683701,189.000000,1.000000
3708459.692309,111.000000,1.000000
3708459.692315,87.000000,1.000000
3708459.699869,87.000000,1.000000
3708459.699873,103.000000,1.000000
3708459.706194,181.000000,1.000000
3708459.706197,203.000000,1.000000
3708459.715011,205.000000,1.000000
3708459.715017,187.000000,1.000000
3708459.724888,110.000000,1.000000
3708459.724893,85.000000,1.000000
3708459.733743,85.000000,1.000000
3708459.733758,103.000000,1.000000
3708459.740058,179.000000,1.000000
3708459.740061,204.000000,1.000000
3708459.748871,204.000000,1.000000
3708459.748875,188.000000,1.000000
3708459.756458,112.000000,1.000000
3708459.756471,87.000000,1.000000
3708459.762773,86.000000,1.000000
3708459.762778,104.000000,1.000000
3708459.771590,181.000000,1.000000
3708459.771596,203.000000,1.000000
3708459.790356,205.000000,1.000000
3708459.790364,187.000000,1.000000
3708459.790373,111.000000,1.000000
3708459.790374,86.000000,1.000000
3708459.796667,85.000000,1.000000
3708459.796674,106.000000,1.000000
3708459.819344,180.000000,1.000000
3708459.819351,203.000000,1.000000
3708459.831986,205.000000,1.000000
3708459.831991,187.000000,1.000000
3708459.833258,112.000000,1.000000
3708459.833264,87.000000,1.000000
3708459.835791,87.000000,1.000000
3708459.835794,104.000000,1.000000
3708459.837060,181.000000,1.000000
3708459.837066,205.000000,1.000000
3708459.844625,205.000000,1.000000
3708459.844629,187.000000,1.000000
3708459.849674,111.000000,1.000000
3708459.849679,86.000000,1.000000
3708459.858534,85.000000,1.000000
3708459.858539,103.000000,1.000000
3708459.868461,179.000000,1.000000
3708459.868467,203.000000,1.000000
3708459.877278,204.000000,1.000000
3708459.877282,187.000000,1.000000
3708459.883635,110.000000,1.000000
3708459.883642,86.000000,1.000000
3708459.891049,88.000000,1.000000
3708459.891054,104.000000,1.000000
3708459.899891,179.000000,1.000000
3708459.899897,204.000000,1.000000
3708459.916078,205.000000,1.000000
3708459.916083,188.000000,1.000000
3708459.916090,112.000000,1.000000
3708459.916091,88.000000,1.000000
3708459.934985,87.000000,1.000000
3708459.934990,102.000000,1.000000
3708459.934996,180.000000,1.000000
3708459.934998,204.000000,1.000000
3708459.941303,204.000000,1.000000
3708459.941307,188.000000,1.000000
3708459.958969,111.000000,1.000000
3708459.958974,88.000000,1.000000
3708459.958981,88.000000,1.000000
3708459.958982,103.000000,1.000000
3708459.962767,180.000000,1.000000
3708459.962773,207.000000,1.000000
3708459.971581,203.000000,1.000000
3708459.971587,179.000000,1.000000
3708459.980470,100.000000,1.000000
3708459.980475,71.000000,1.000000
3708459.986814,62.000000,1.000000
3708459.986821,75.000000,1.000000
3708459.994374,145.000000,1.000000
3708459.994379,162.000000,1.000000
3708460.005752,157.000000,1.000000
3708460.005757,135.000000,1.000000
3708460.013324,52.000000,1.000000
3708460.013333,20.000000,1.000000
3708460.019682,15.000000,1.000000
3708460.019687,26.000000,1.000000
3708460.028523,97.000000,1.000000
3708460.028529,115.000000,1.000000
3708460.037357,109.000000,1.000000
3708460.037361,87.000000,1.000000
3708460.043669,6.000000,1.000000
3708460.043676,-23.000000,1.000000
3708460.052519,-27.000000,1.000000
3708460.052528,-13.000000,1.000000
3708460.071384,63.000000,1.000000
3708460.071394,87.000000,1.000000
3708460.071402,88.000000,1.000000
3708460.071408,70.000000,1.000000
3708460.077710,-6.000000,1.000000
3708460.077717,-31.000000,1.000000
3708460.082720,-31.000000,1.000000
3708460.082724,-13.000000,1.000000
3708460.095312,62.000000,1.000000
3708460.095317,85.000000,1.000000
3708460.118240,88.000000,1.000000
3708460.118245,72.000000,1.000000
3708460.142176,-6.000000,1.000000
3708460.142192,-31.000000,1.000000
3708460.156080,-32.000000,1.000000
3708460.156085,-16.000000,1.000000
3708460.157350,61.000000,1.000000
3708460.157353,84.000000,1.000000
3708460.159874,86.000000,1.000000
3708460.159877,70.000000,1.000000
3708460.162399,-9.000000,1.000000
3708460.162404,-34.000000,1.000000
3708460.166189,-34.000000,1.000000
3708460.166193,-16.000000,1.000000
3708460.166199,60.000000,1.000000
3708460.166205,84.000000,1.000000
3708460.168735,85.000000,1.000000
3708460.168740,66.000000,1.000000
3708460.170008,-12.000000,1.000000
3708460.170014,-32.000000,1.000000
3708460.181371,-33.000000,1.000000
3708460.181375,-17.000000,1.000000
3708460.190188,61.000000,1.000000
3708460.190191,85.000000,1.000000
3708460.196495,86.000000,1.000000
3708460.196499,67.000000,1.000000
3708460.214183,-8.000000,1.000000
3708460.214188,-32.000000,1.000000
3708460.214194,-34.000000,1.000000
3708460.214196,-17.000000,1.000000
3708460.220494,61.000000,1.000000
3708460.220500,86.000000,1.000000
3708460.239388,85.000000,1.000000
3708460.239393,68.000000,1.000000
3708460.239399,-8.000000,1.000000
3708460.239400,-34.000000,1.000000
3708460.243189,-35.000000,1.000000
3708460.243196,-19.000000,1.000000
3708460.252017,58.000000,1.000000
3708460.252023,85.000000,1.000000
3708460.260829,83.000000,1.000000
3708460.260833,65.000000,1.000000
3708460.265882,-9.000000,1.000000
3708460.265888,-32.000000,1.000000
3708460.277198,-33.000000,1.000000
3708460.277202,-15.000000,1.000000
3708460.283606,60.000000,1.000000
3708460.283609,84.000000,1.000000
3708460.293699,86.000000,1.000000
3708460.293703,66.000000,1.000000
3708460.300014,-11.000000,1.000000
3708460.300020,-30.000000,1.000000
3708460.307592,-30.000000,1.000000
3708460.307597,-15.000000,1.000000
3708460.316426,61.000000,1.000000
3708460.316432,85.000000,1.000000
3708460.322725,86.000000,1.000000
3708460.322728,69.000000,1.000000
3708460.331559,-7.000000,1.000000
3708460.331564,-30.000000,1.000000
3708460.340398,-33.000000,1.000000
3708460.340402,-17.000000,1.000000
3708460.349225,61.000000,1.000000
3708460.349228,85.000000,1.000000
3708460.354266,86.000000,1.000000
3708460.354271,69.000000,1.000000
3708460.368043,-6.000000,1.000000
3708460.368048,-32.000000,1.000000
3708460.374344,-33.000000,1.000000
3708460.374347,-15.000000,1.000000
3708460.379389,62.000000,1.000000
3708460.379394,84.000000,1.000000
3708460.388207,86.000000,1.000000
3708460.388209,69.000000,1.000000
3708460.397040,-8.000000,1.000000
3708460.397045,-31.000000,1.000000
3708460.422207,-32.000000,1.000000
3708460.422213,-14.000000,1.000000
3708460.431040,61.000000,1.000000
3708460.431046,84.000000,1.000000
3708460.432320,86.000000,1.000000
3708460.432323,70.000000,1.000000
3708460.434853,-7.000000,1.000000
3708460.434857,-31.000000,1.000000
3708460.437386,-33.000000,1.000000
3708460.437389,-15.000000,1.000000
3708460.443757,62.000000,1.000000
3708460.443763,87.000000,1.000000
3708460.452587,86.000000,1.000000
3708460.452590,71.000000,1.000000
3708460.461435,-5.000000,1.000000
3708460.461487,-30.000000,1.000000
3708460.469143,-33.000000,1.000000
3708460.469147,-16.000000,1.000000
3708460.475482,62.000000,1.000000
3708460.475486,85.000000,1.000000
3708460.494393,87.000000,1.000000
3708460.494398,70.000000,1.000000
3708460.494405,-7.000000,1.000000
3708460.494406,-33.000000,1.000000
3708460.500699,-33.000000,1.000000
3708460.500707,-15.000000,1.000000
3708460.519591,62.000000,1.000000
3708460.519595,85.000000,1.000000
3708460.519601,86.000000,1.000000
3708460.519602,70.000000,1.000000
3708460.522133,-9.000000,1.000000
3708460.522137,-33.000000,1.000000
3708460.533509,-31.000000,1.000000
3708460.533515,-15.000000,1.000000
3708460.539819,62.000000,1.000000
3708460.539824,86.000000,1.000000
3708460.547398,88.000000,1.000000
3708460.547401,70.000000,1.000000
3708460.556233,-7.000000,1.000000
3708460.556238,-31.000000,1.000000
3708460.565064,-32.000000,1.000000
3708460.565069,-15.000000,1.000000
3708460.572610,61.000000,1.000000
3708460.572612,85.000000,1.000000
3708460.578900,86.000000,1.000000
3708460.578903,70.000000,1.000000
3708460.587724,-7.000000,1.000000
3708460.587729,-32.000000,1.000000
3708460.596563,-32.000000,1.000000
3708460.596567,-14.000000,1.000000
3708460.602859,61.000000,1.000000
3708460.602862,84.000000,1.000000
3708460.615227,87.000000,1.000000
3708460.615231,70.000000,1.000000
3708460.621530,-7.000000,1.000000
3708460.621536,-33.000000,1.000000
3708460.629142,-32.000000,1.000000
3708460.629147,-16.000000,1.000000
3708460.635244,61.000000,1.000000
3708460.635250,85.000000,1.000000
3708460.644065,87.000000,1.000000
3708460.644069,68.000000,1.000000
3708460.662946,-8.000000,1.000000
3708460.662953,-31.000000,1.000000
3708460.662959,-32.000000,1.000000
3708460.662964,-14.000000,1.000000
3708460.666578,62.000000,1.000000
3708460.666584,85.000000,1.000000
3708460.675390,85.000000,1.000000
3708460.675393,68.000000,1.000000
3708460.684258,-8.000000,1.000000
3708460.684265,-31.000000,1.000000
3708460.690578,-33.000000,1.000000
3708460.690582,-17.000000,1.000000
3708460.718266,59.000000,1.000000
3708460.718273,84.000000,1.000000
3708460.731936,85.000000,1.000000
3708460.731943,68.000000,1.000000
3708460.733210,-8.000000,1.000000
3708460.733216,-32.000000,1.000000
3708460.734480,-34.000000,1.000000
3708460.734482,-16.000000,1.000000
3708460.737006,62.000000,1.000000
3708460.737013,84.000000,1.000000
3708460.738280,86.000000,1.000000
3708460.738286,69.000000,1.000000
3708460.748142,-8.000000,1.000000
3708460.748146,-31.000000,1.000000
3708460.756996,-32.000000,1.000000
3708460.757001,-16.000000,1.000000
3708460.764551,61.000000,1.000000
3708460.764553,84.000000,1.000000
3708460.781935,85.000000,1.000000
3708460.781940,70.000000,1.000000
3708460.781946,-7.000000,1.000000
3708460.781948,-31.000000,1.000000
3708460.785809,-32.000000,1.000000
3708460.785815,-15.000000,1.000000
3708460.799658,61.000000,1.000000
3708460.799662,85.000000,1.000000
3708460.803445,87.000000,1.000000
3708460.803448,70.000000,1.000000
3708460.812263,-7.000000,1.000000
3708460.812268,-30.000000,1.000000
3708460.819889,-31.000000,1.000000
3708460.819893,-15.000000,1.000000
3708460.826191,62.000000,1.000000
3708460.826197,86.000000,1.000000
3708460.835005,87.000000,1.000000
3708460.835010,70.000000,1.000000
3708460.843834,-7.000000,1.000000
3708460.843846,-32.000000,1.000000
3708460.852691,-33.000000,1.000000
3708460.852696,-16.000000,1.000000
3708460.858979,63.000000,1.000000
3708460.858982,86.000000,1.000000
3708460.868818,86.000000,1.000000
3708460.868821,69.000000,1.000000
3708460.877418,-6.000000,1.000000
3708460.877423,-31.000000,1.000000
3708460.882465,-32.000000,1.000000
3708460.882468,-15.000000,1.000000
3708460.891058,62.000000,1.000000
3708460.891062,86.000000,1.000000
3708460.901134,87.000000,1.000000
3708460.901138,70.000000,1.000000
3708460.909979,-7.000000,1.000000
3708460.909984,-29.000000,1.000000
3708460.916276,-28.000000,1.000000
3708460.916279,-13.000000,1.000000
3708460.935174,62.000000,1.000000
3708460.935180,87.000000,1.000000
3708460.935187,89.000000,1.000000
3708460.935193,70.000000,1.000000
3708460.940248,-7.000000,1.000000
3708460.940255,-32.000000,1.000000
3708460.959133,-31.000000,1.000000
3708460.959138,-15.000000,1.000000
3708460.959145,61.000000,1.000000
3708460.959146,85.000000,1.000000
3708460.962925,85.000000,1.000000
3708460.962931,67.000000,1.000000
3708460.970550,-6.000000,1.000000
3708460.970557,-30.000000,1.000000
3708460.978154,-30.000000,1.000000
3708460.978159,-13.000000,1.000000
3708460.988162,62.000000,1.000000
3708460.988169,87.000000,1.000000
3708460.996982,88.000000,1.000000
3708460.996985,71.000000,1.000000
3708461.018515,-6.000000,1.000000
3708461.018520,-30.000000,1.000000
3708461.032401,-31.000000,1.000000
3708461.032405,-14.000000,1.000000
3708461.033677,63.000000,1.000000
3708461.033681,88.000000,1.000000
3708461.036223,89.000000,1.000000
3708461.036226,69.000000,1.000000
3708461.038753,-6.000000,1.000000
3708461.038773,-30.000000,1.000000
3708461.043835,-32.000000,1.000000
3708461.043855,-16.000000,1.000000
3708461.052674,62.000000,1.000000
3708461.052679,87.000000,1.000000
3708461.071590,88.000000,1.000000
3708461.071595,69.000000,1.000000
3708461.071601,-8.000000,1.000000
3708461.071602,-30.000000,1.000000
3708461.076651,-30.000000,1.000000
3708461.076655,-14.000000,1.000000
3708461.085471,63.000000,1.000000
3708461.085477,86.000000,1.000000
3708461.091769,88.000000,1.000000
3708461.091772,69.000000,1.000000
3708461.110704,-6.000000,1.000000
3708461.110709,-30.000000,1.000000
3708461.110715,-31.000000,1.000000
3708461.110716,-15.000000,1.000000
3708461.115749,62.000000,1.000000
3708461.115752,86.000000,1.000000
3708461.122038,88.000000,1.000000
3708461.122043,71.000000,1.000000
3708461.132052,-6.000000,1.000000
3708461.132059,-29.000000,1.000000
3708461.143393,-30.000000,1.000000
3708461.143396,-15.000000,1.000000
3708461.147189,62.000000,1.000000
3708461.147193,84.000000,1.000000
3708461.154738,87.000000,1.000000
3708461.154745,71.000000,1.000000
3708461.163553,-5.000000,0.000000
3708461.163558,-30.000000,0.000000
3708461.172392,-32.000000,0.000000
3708461.172397,-12.000000,0.000000
3708461.178695,67.000000,0.000000
3708461.178702,88.000000,0.000000
3708461.188575,89.000000,0.000000
3708461.188578,74.000000,0.000000
3708461.202430,-5.000000,0.000000
3708461.202435,-29.000000,0.000000
3708461.204968,-31.000000,0.000000
3708461.204972,-14.000000,0.000000
3708461.211276,62.000000,0.000000
3708461.211282,86.000000,0.000000
3708461.222616,86.000000,0.000000
3708461.222619,68.000000,0.000000
3708461.228919,-10.000000,0.000000
3708461.228924,-35.000000,0.000000
3708461.235227,-36.000000,0.000000
3708461.235231,-20.000000,0.000000
3708461.244051,56.000000,0.000000
3708461.244054,79.000000,0.000000
3708461.250345,83.000000,0.000000
3708461.250350,66.000000,0.000000
3708461.260255,-12.000000,1.000000
3708461.260260,-34.000000,1.000000
3708461.267815,-38.000000,1.000000
3708461.267819,-21.000000,1.000000
3708461.276747,56.000000,1.000000
3708461.276750,80.000000,1.000000
3708461.283042,79.000000,1.000000
3708461.283045,63.000000,1.000000
3708461.291881,-14.000000,1.000000
3708461.291887,-38.000000,1.000000
3708461.322124,-39.000000,1.000000
3708461.322130,-21.000000,1.000000
3708461.332323,55.000000,1.000000
3708461.332336,80.000000,1.000000
3708461.333599,82.000000,1.000000
3708461.333698,63.000000,1.000000
3708461.333709,-13.000000,1.000000
3708461.333711,-36.000000,1.000000
3708461.337312,-37.000000,1.000000
3708461.337317,-19.000000,1.000000
3708461.339843,56.000000,1.000000
3708461.339847,80.000000,1.000000
3708461.346140,83.000000,1.000000
3708461.346152,65.000000,1.000000
3708461.356512,-13.000000,1.000000
3708461.356519,-38.000000,1.000000
3708461.364095,-40.000000,1.000000
3708461.364102,-22.000000,1.000000
3708461.383127,55.000000,1.000000
3708461.383134,79.000000,1.000000
3708461.383141,80.000000,1.000000
3708461.383151,63.000000,1.000000
3708461.387063,-13.000000,1.000000
3708461.387071,-36.000000,1.000000
3708461.417398,-38.000000,1.000000
3708461.417404,-22.000000,1.000000
3708461.419955,54.000000,1.000000
3708461.419959,79.000000,1.000000
3708461.421225,80.000000,1.000000
3708461.421228,62.000000,1.000000
3708461.422553,-13.000000,1.000000
3708461.422557,-37.000000,1.000000
3708461.426409,-40.000000,1.000000
3708461.426414,-23.000000,1.000000
3708461.435280,55.000000,1.000000
3708461.435285,79.000000,1.000000
3708461.444099,79.000000,1.000000
3708461.444103,62.000000,1.000000
3708461.452937,-14.000000,1.000000
3708461.452942,-36.000000,1.000000
3708461.459021,-38.000000,1.000000
3708461.459026,-22.000000,1.000000
3708461.470377,55.000000,1.000000
3708461.470381,78.000000,1.000000
3708461.476677,80.000000,1.000000
3708461.476681,63.000000,1.000000
3708461.482996,-15.000000,1.000000
3708461.483003,-39.000000,1.000000
3708461.500647,-38.000000,1.000000
3708461.500655,-22.000000,1.000000
3708461.500662,55.000000,1.000000
3708461.500667,78.000000,1.000000
3708461.519334,79.000000,1.000000
3708461.519339,62.000000,1.000000
3708461.519346,-15.000000,1.000000
3708461.519347,-39.000000,1.000000
3708461.523148,-39.000000,1.000000
3708461.523162,-23.000000,1.000000
3708461.531926,55.000000,1.000000
3708461.531932,78.000000,1.000000
3708461.540741,80.000000,1.000000
3708461.540744,62.000000,1.000000
3708461.548295,-16.000000,1.000000
3708461.548300,-37.000000,1.000000
3708461.558382,-37.000000,1.000000
3708461.558390,-21.000000,1.000000
3708461.564681,56.000000,1.000000
3708461.564687,79.000000,1.000000
3708461.572236,79.000000,1.000000
3708461.572239,64.000000,1.000000
3708461.578534,-13.000000,1.000000
3708461.578539,-38.000000,1.000000
3708461.588622,-39.000000,1.000000
3708461.588637,-20.000000,1.000000
3708461.597443,56.000000,1.000000
3708461.597449,79.000000,1.000000
3708461.618872,82.000000,1.000000
3708461.618878,65.000000,1.000000
3708461.632723,-12.000000,1.000000
3708461.632729,-36.000000,1.000000
3708461.633996,-37.000000,1.000000
3708461.634000,-19.000000,1.000000
3708461.635266,57.000000,1.000000
3708461.635273,81.000000,1.000000
3708461.637804,81.000000,1.000000
3708461.637809,63.000000,1.000000
3708461.644108,-14.000000,1.000000
3708461.644114,-37.000000,1.000000
3708461.652962,-39.000000,1.000000
3708461.652966,-22.000000,1.000000
3708461.659276,55.000000,1.000000
3708461.659282,78.000000,1.000000
3708461.668091,78.000000,1.000000
3708461.668094,61.000000,1.000000
3708461.675650,-12.000000,1.000000
3708461.675655,-37.000000,1.000000
3708461.683260,-38.000000,1.000000
3708461.683295,-21.000000,1.000000
3708461.690965,56.000000,1.000000
3708461.690968,80.000000,1.000000
3708461.701047,82.000000,1.000000
3708461.701050,65.000000,1.000000
3708461.707367,-13.000000,1.000000
3708461.707386,-37.000000,1.000000
3708461.718836,-38.000000,1.000000
3708461.718840,-21.000000,1.000000
3708461.725132,56.000000,1.000000
3708461.725134,79.000000,1.000000
3708461.733953,81.000000,1.000000
3708461.733958,64.000000,1.000000
3708461.739068,-12.000000,1.000000
3708461.739075,-36.000000,1.000000
3708461.747900,-39.000000,1.000000
3708461.747904,-22.000000,1.000000
3708461.766789,55.000000,1.000000
3708461.766795,78.000000,1.000000
3708461.766801,78.000000,1.000000
3708461.766807,63.000000,1.000000
3708461.770592,-15.000000,1.000000
3708461.770597,-39.000000,1.000000
3708461.778178,-39.000000,1.000000
3708461.778182,-23.000000,1.000000
3708461.786983,52.000000,1.000000
3708461.786990,77.000000,1.000000
3708461.807186,80.000000,1.000000
3708461.807193,64.000000,1.000000
3708461.807200,-14.000000,1.000000
3708461.807201,-37.000000,1.000000
3708461.810999,-40.000000,1.000000
3708461.811003,-24.000000,1.000000
3708461.823582,52.000000,1.000000
3708461.823585,78.000000,1.000000
3708461.827372,83.000000,1.000000
3708461.827377,71.000000,1.000000
3708461.834936,-4.000000,1.000000
3708461.834941,-25.000000,1.000000
3708461.843783,-20.000000,1.000000
3708461.843788,2.000000,1.000000
3708461.852595,82.000000,1.000000
3708461.852601,112.000000,1.000000
3708461.858893,120.000000,1.000000
3708461.858896,105.000000,1.000000
3708461.869093,32.000000,1.000000
3708461.869099,14.000000,1.000000
3708461.876663,17.000000,1.000000
3708461.876668,36.000000,1.000000
3708461.882923,118.000000,1.000000
3708461.882929,146.000000,1.000000
3708461.894251,147.000000,1.000000
3708461.894255,134.000000,1.000000
3708461.918207,61.000000,1.000000
3708461.918213,40.000000,1.000000
3708461.932250,42.000000,1.000000
3708461.932300,62.000000,1.000000
3708461.932309,141.000000,1.000000
3708461.932310,167.000000,1.000000
3708461.934839,171.000000,1.000000
3708461.934842,156.000000,1.000000
3708461.937366,83.000000,1.000000
3708461.937373,60.000000,1.000000
3708461.940011,59.000000,1.000000
3708461.940016,79.000000,1.000000
3708461.947575,158.000000,1.000000
3708461.947581,183.000000,1.000000
3708461.956405,187.000000,1.000000
3708461.956408,173.000000,1.000000
3708461.965253,94.000000,1.000000
3708461.965258,73.000000,1.000000
3708461.975335,73.000000,1.000000
3708461.975339,91.000000,1.000000
3708461.979124,172.000000,1.000000
3708461.979129,196.000000,1.000000
3708461.987947,197.000000,1.000000
3708461.987950,184.000000,1.000000
3708461.996783,107.000000,1.000000
3708461.996788,83.000000,1.000000
3708462.003080,81.000000,1.000000
3708462.003083,98.000000,1.000000
3708462.011899,176.000000,1.000000
3708462.011903,200.000000,1.000000
3708462.021868,202.000000,1.000000
3708462.021871,184.000000,1.000000
3708462.030721,106.000000,1.000000
3708462.030726,83.000000,1.000000
3708462.035761,82.000000,1.000000
3708462.035766,102.000000,1.000000
3708462.054654,178.000000,1.000000
3708462.054661,200.000000,1.000000
3708462.059710,200.000000,1.000000
3708462.059715,181.000000,1.000000
3708462.059721,105.000000,1.000000
3708462.059722,83.000000,1.000000
3708462.066030,83.000000,1.000000
3708462.066034,100.000000,1.000000
3708462.074840,175.000000,1.000000
3708462.074843,200.000000,1.000000
3708462.083646,203.000000,1.000000
3708462.083650,182.000000,1.000000
3708462.091229,105.000000,1.000000
3708462.091234,81.000000,1.000000
3708462.100076,82.000000,1.000000
3708462.100095,99.000000,1.000000
3708462.117724,174.000000,1.000000
3708462.117729,200.000000,1.000000
3708462.117735,200.000000,1.000000
3708462.117737,184.000000,1.000000
3708462.122784,105.000000,1.000000
3708462.122790,82.000000,1.000000
3708462.131637,81.000000,1.000000
3708462.131641,97.000000,1.000000
3708462.142965,176.000000,1.000000
3708462.142968,201.000000,1.000000
3708462.146751,201.000000,1.000000
3708462.146756,183.000000,1.000000
3708462.155580,107.000000,1.000000
3708462.155585,81.000000,1.000000
3708462.163157,81.000000,1.000000
3708462.163166,99.000000,1.000000
3708462.171982,175.000000,1.000000
3708462.171986,199.000000,1.000000
3708462.179616,199.000000,1.000000
3708462.179619,179.000000,1.000000
3708462.188460,106.000000,1.000000
3708462.188465,83.000000,1.000000
3708462.222441,81.000000,1.000000
3708462.222446,97.000000,1.000000
3708462.222452,174.000000,1.000000
3708462.222454,198.000000,1.000000
3708462.232531,199.000000,1.000000
3708462.232538,181.000000,1.000000
3708462.233807,104.000000,1.000000
3708462.233812,83.000000,1.000000
3708462.233818,81.000000,1.000000
3708462.233819,100.000000,1.000000
3708462.236340,173.000000,1.000000
3708462.236346,198.000000,1.000000
3708462.243898,198.000000,1.000000
3708462.243902,180.000000,1.000000
3708462.250208,105.000000,1.000000
3708462.250215,81.000000,1.000000
3708462.259012,80.000000,1.000000
3708462.259018,97.000000,1.000000
3708462.267804,175.000000,1.000000
3708462.267810,198.000000,1.000000
3708462.276481,198.000000,1.000000
3708462.276487,179.000000,1.000000
3708462.282792,104.000000,1.000000
3708462.282797,81.000000,1.000000
3708462.291611,80.000000,1.000000
3708462.291620,99.000000,1.000000
3708462.300441,174.000000,1.000000
3708462.300447,196.000000,1.000000
3708462.316814,199.000000,1.000000
3708462.316819,182.000000,1.000000
3708462.319350,106.000000,1.000000
3708462.319354,82.000000,1.000000
3708462.323165,80.000000,1.000000
3708462.323168,98.000000,1.000000
3708462.343301,176.000000,1.000000
3708462.343306,199.000000,1.000000
3708462.343313,199.000000,1.000000
3708462.343314,182.000000,1.000000
3708462.349617,104.000000,1.000000
3708462.349623,80.000000,1.000000
3708462.355944,79.000000,1.000000
3708462.355949,96.000000,1.000000
3708462.363496,171.000000,1.000000
3708462.363502,197.000000,1.000000
3708462.382378,200.000000,1.000000
3708462.382384,182.000000,1.000000
3708462.382399,105.000000,1.000000
3708462.382401,80.000000,1.000000
3708462.387246,79.000000,1.000000
3708462.387250,99.000000,1.000000
3708462.396079,175.000000,1.000000
3708462.396095,196.000000,1.000000
3708462.406325,198.000000,1.000000
3708462.406328,183.000000,1.000000
3708462.411420,109.000000,1.000000
3708462.411424,84.000000,1.000000
3708462.419006,80.000000,1.000000
3708462.419011,98.000000,1.000000
3708462.427825,174.000000,1.000000
3708462.427829,198.000000,1.000000
3708462.437899,200.000000,1.000000
3708462.437903,182.000000,1.000000
3708462.444208,105.000000,1.000000
3708462.444214,81.000000,1.000000
3708462.451778,81.000000,1.000000
3708462.451782,98.000000,1.000000
3708462.470599,174.000000,1.000000
3708462.470603,199.000000,1.000000
3708462.470610,200.000000,1.000000
3708462.470612,183.000000,1.000000
3708462.476941,107.000000,1.000000
3708462.476983,81.000000,1.000000
3708462.485808,81.000000,1.000000
3708462.485840,99.000000,1.000000
3708462.490887,174.000000,1.000000
3708462.490890,200.000000,1.000000
3708462.518597,201.000000,1.000000
3708462.518602,184.000000,1.000000
3708462.532464,106.000000,1.000000
3708462.532472,81.000000,1.000000
3708462.533743,81.000000,1.000000
3708462.533747,97.000000,1.000000
3708462.535018,178.000000,1.000000
3708462.535020,201.000000,1.000000
3708462.536289,199.000000,1.000000
3708462.536295,180.000000,1.000000
3708462.538829,104.000000,1.000000
3708462.538834,81.000000,1.000000
3708462.546392,81.000000,1.000000
3708462.546399,97.000000,1.000000
3708462.556228,174.000000,1.000000
3708462.556231,198.000000,1.000000
3708462.565047,198.000000,1.000000
3708462.565051,181.000000,1.000000
3708462.575236,102.000000,1.000000
3708462.575242,82.000000,1.000000
3708462.579030,86.000000,1.000000
3708462.579034,105.000000,1.000000
3708462.587849,180.000000,1.000000
3708462.587855,206.000000,1.000000
3708462.596686,208.000000,1.000000
3708462.596693,192.000000,1.000000
3708462.603012,119.000000,1.000000
3708462.603016,96.000000,1.000000
3708462.611874,97.000000,1.000000
3708462.611877,113.000000,1.000000
3708462.630511,188.000000,1.000000
3708462.630516,216.000000,1.000000
3708462.630523,218.000000,1.000000
3708462.630525,202.000000,1.000000
3708462.636846,125.000000,1.000000
3708462.636859,102.000000,1.000000
3708462.645677,98.000000,1.000000
3708462.645680,117.000000,1.000000
3708462.651983,196.000000,1.000000
3708462.651989,220.000000,1.000000
3708462.663326,220.000000,1.000000
3708462.663331,203.000000,1.000000
3708462.667125,128.000000,1.000000
3708462.667130,103.000000,1.000000
3708462.696087,99.000000,1.000000
3708462.696095,117.000000,1.000000
3708462.697465,192.000000,1.000000
3708462.697471,218.000000,1.000000
3708462.698745,221.000000,1.000000
3708462.698747,204.000000,1.000000
3708462.700014,127.000000,1.000000
3708462.700019,102.000000,1.000000
3708462.707590,100.000000,1.000000
3708462.707595,117.000000,1.000000
3708462.716409,194.000000,1.000000
3708462.716413,217.000000,1.000000
3708462.725224,219.000000,1.000000
3708462.725227,202.000000,1.000000
3708462.732806,125.000000,1.000000
3708462.732813,101.000000,1.000000
3708462.739107,99.000000,1.000000
3708462.739111,116.000000,1.000000
3708462.748943,193.000000,1.000000
3708462.748946,218.000000,1.000000
3708462.762934,220.000000,1.000000
3708462.762939,203.000000,1.000000
3708462.765466,125.000000,1.000000
3708462.765470,103.000000,1.000000
3708462.771791,103.000000,1.000000
3708462.771795,122.000000,1.000000
3708462.790676,196.000000,1.000000
3708462.790680,218.000000,1.000000
3708462.790687,217.000000,1.000000
3708462.790688,202.000000,1.000000
3708462.797005,126.000000,1.000000
3708462.797010,101.000000,1.000000
3708462.818414,101.000000,1.000000
3708462.818420,118.000000,1.000000
3708462.832284,194.000000,1.000000
3708462.832291,218.000000,1.000000
3708462.833558,221.000000,1.000000
3708462.833568,202.000000,1.000000
3708462.834843,125.000000,1.000000
3708462.834849,101.000000,1.000000
3708462.836117,102.000000,1.000000
3708462.836119,119.000000,1.000000
3708462.844721,194.000000,1.000000
3708462.844726,218.000000,1.000000
3708462.853539,218.000000,1.000000
3708462.853542,201.000000,1.000000
3708462.859860,125.000000,1.000000
3708462.859864,101.000000,1.000000
3708462.868685,99.000000,1.000000
3708462.868689,117.000000,1.000000
3708462.877508,194.000000,1.000000
3708462.877515,217.000000,1.000000
3708462.883815,219.000000,1.000000
3708462.883821,202.000000,1.000000
3708462.891390,126.000000,1.000000
3708462.891394,102.000000,1.000000
3708462.910277,99.000000,1.000000
3708462.910282,118.000000,1.000000
3708462.910288,195.000000,1.000000
3708462.910313,218.000000,1.000000
3708462.915357,219.000000,1.000000
3708462.915363,201.000000,1.000000
3708462.922975,124.000000,1.000000
3708462.922981,100.000000,1.000000
3708462.931580,101.000000,1.000000
3708462.931596,117.000000,1.000000
3708462.940422,194.000000,1.000000
3708462.940424,217.000000,1.000000
3708462.947997,218.000000,1.000000
3708462.948000,204.000000,1.000000
3708462.955593,127.000000,1.000000
3708462.955599,102.000000,1.000000
3708462.964371,102.000000,1.000000
3708462.964376,119.000000,1.000000
3708462.973197,195.000000,1.000000
3708462.973200,219.000000,1.000000
3708462.979521,220.000000,1.000000
3708462.979525,203.000000,1.000000
3708462.988380,126.000000,1.000000
3708462.988386,101.000000,1.000000
3708462.999733,101.000000,1.000000
3708462.999737,118.000000,1.000000
3708463.003526,194.000000,1.000000
3708463.003532,220.000000,1.000000
3708463.012337,222.000000,1.000000
3708463.012341,203.000000,1.000000
3708463.021184,125.000000,1.000000
3708463.021190,103.000000,1.000000
3708463.028777,101.000000,1.000000
3708463.028781,119.000000,1.000000
3708463.035073,196.000000,1.000000
3708463.035079,218.000000,1.000000
3708463.053944,219.000000,1.000000
3708463.053951,204.000000,1.000000
3708463.053957,126.000000,1.000000
3708463.053958,100.000000,1.000000
3708463.061349,98.000000,1.000000
3708463.061354,116.000000,1.000000
3708463.080215,193.000000,1.000000
3708463.080218,215.000000,1.000000
3708463.080224,219.000000,1.000000
3708463.080226,201.000000,1.000000
3708463.082757,125.000000,1.000000
3708463.082761,103.000000,1.000000
3708463.094087,101.000000,1.000000
3708463.094092,119.000000,1.000000
3708463.118013,194.000000,1.000000
3708463.118019,219.000000,1.000000
3708463.131871,219.000000,1.000000
3708463.131877,202.000000,1.000000
3708463.133145,127.000000,1.000000
3708463.133151,103.000000,1.000000
3708463.134416,102.000000,1.000000
3708463.134423,118.000000,1.000000
3708463.135691,195.000000,1.000000
3708463.135697,217.000000,1.000000
3708463.138220,219.000000,1.000000
3708463.138224,202.000000,1.000000
3708463.147069,127.000000,1.000000
3708463.147073,103.000000,1.000000
3708463.155836,103.000000,1.000000
3708463.155842,119.000000,1.000000
3708463.165915,195.000000,1.000000
3708463.165921,220.000000,1.000000
3708463.177350,225.000000,1.000000
3708463.177365,208.000000,1.000000
3708463.179889,131.000000,1.000000
3708463.179892,100.000000,1.000000
3708463.188697,94.000000,1.000000
3708463.188701,110.000000,1.000000
3708463.206295,181.000000,1.000000
3708463.206300,196.000000,1.000000
3708463.206306,192.000000,1.000000
3708463.206322,171.000000,1.000000
3708463.210107,90.000000,0.000000
3708463.210112,59.000000,0.000000
3708463.220130,53.000000,0.000000
3708463.220147,65.000000,0.000000
3708463.228996,136.000000,0.000000
3708463.229002,152.000000,0.000000
3708463.236554,145.000000,0.000000
3708463.236569,123.000000,0.000000
3708463.244144,42.000000,1.000000
3708463.244149,12.000000,1.000000
3708463.251777,5.000000,1.000000
3708463.251781,15.000000,1.000000
3708463.263116,87.000000,1.000000
3708463.263122,104.000000,1.000000
3708463.266905,101.000000,1.000000
3708463.266910,79.000000,1.000000
3708463.275743,-1.000000,1.000000
3708463.275748,-27.000000,1.000000
3708463.283307,-28.000000,1.000000
3708463.283318,-11.000000,1.000000
3708463.292125,66.000000,1.000000
3708463.292131,89.000000,1.000000
3708463.298419,89.000000,1.000000
3708463.298425,73.000000,1.000000
3708463.308488,0.000000,1.000000
3708463.308507,-27.000000,1.000000
3708463.327394,-28.000000,1.000000
3708463.327401,-13.000000,1.000000
3708463.327408,63.000000,1.000000
3708463.327409,89.000000,1.000000
3708463.331190,90.000000,1.000000
3708463.331196,73.000000,1.000000
3708463.340020,-5.000000,1.000000
3708463.340025,-27.000000,1.000000
3708463.350092,-27.000000,1.000000
3708463.350097,-12.000000,1.000000
3708463.356396,65.000000,1.000000
3708463.356399,89.000000,1.000000
3708463.365211,88.000000,1.000000
3708463.365218,71.000000,1.000000
3708463.371528,-4.000000,1.000000
3708463.371533,-29.000000,1.000000
3708463.380402,-29.000000,1.000000
3708463.380406,-13.000000,1.000000
3708463.385464,64.000000,1.000000
3708463.385467,90.000000,1.000000
3708463.395598,90.000000,1.000000
3708463.395603,70.000000,1.000000
3708463.418281,-5.000000,1.000000
3708463.418288,-29.000000,1.000000
3708463.432140,-31.000000,1.000000
3708463.432147,-11.000000,1.000000
3708463.433418,65.000000,1.000000
3708463.433424,89.000000,1.000000
3708463.435956,89.000000,1.000000
3708463.435960,72.000000,1.000000
3708463.437233,-2.000000,1.000000
3708463.437236,-29.000000,1.000000
3708463.444793,-30.000000,1.000000
3708463.444797,-15.000000,1.000000
3708463.462391,63.000000,1.000000
3708463.462397,89.000000,1.000000
3708463.462403,90.000000,1.000000
3708463.462405,71.000000,1.000000
3708463.470038,-4.000000,1.000000
3708463.470047,-27.000000,1.000000
3708463.476350,-28.000000,1.000000
3708463.476354,-10.000000,1.000000
3708463.483904,64.000000,1.000000
3708463.483910,87.000000,1.000000
3708463.502895,90.000000,1.000000
3708463.502900,73.000000,1.000000
3708463.502915,-5.000000,1.000000
3708463.502916,-27.000000,1.000000
3708463.506704,-27.000000,1.000000
3708463.506707,-13.000000,1.000000
3708463.525504,60.000000,1.000000
3708463.525510,82.000000,1.000000
3708463.525516,84.000000,1.000000
3708463.525518,69.000000,1.000000
3708463.530572,-9.000000,1.000000
3708463.530579,-33.000000,1.000000
3708463.541915,-32.000000,1.000000
3708463.541922,-18.000000,1.000000
3708463.545769,61.000000,1.000000
3708463.545772,86.000000,1.000000
3708463.555749,87.000000,1.000000
3708463.555753,69.000000,1.000000
3708463.564576,-6.000000,1.000000
3708463.564581,-30.000000,1.000000
3708463.573423,-32.000000,1.000000
3708463.573428,-16.000000,1.000000
3708463.579722,61.000000,1.000000
3708463.579728,86.000000,1.000000
3708463.587278,87.000000,1.000000
3708463.587284,69.000000,1.000000
3708463.606181,-8.000000,1.000000
3708463.606186,-30.000000,1.000000
3708463.606192,-32.000000,1.000000
3708463.606193,-15.000000,1.000000
3708463.611037,61.000000,1.000000
3708463.611043,83.000000,1.000000
3708463.622390,87.000000,1.000000
3708463.622394,69.000000,1.000000
3708463.628704,-6.000000,1.000000
3708463.628709,-31.000000,1.000000
3708463.647588,-33.000000,1.000000
3708463.647596,-15.000000,1.000000
3708463.647603,61.000000,1.000000
3708463.647604,85.000000,1.000000
3708463.650136,86.000000,1.000000
3708463.650141,69.000000,1.000000
3708463.659036,-9.000000,1.000000
3708463.659043,-34.000000,1.000000
3708463.667852,-35.000000,1.000000
3708463.667858,-16.000000,1.000000
3708463.676665,62.000000,1.000000
3708463.676669,84.000000,1.000000
3708463.682964,85.000000,1.000000
3708463.682970,69.000000,1.000000
3708463.691815,-9.000000,1.000000
3708463.691824,-32.000000,1.000000
3708463.719287,-32.000000,1.000000
3708463.719291,-17.000000,1.000000
3708463.731907,60.000000,1.000000
3708463.731915,85.000000,1.000000
3708463.733182,85.000000,1.000000
3708463.733187,68.000000,1.000000
3708463.734451,-8.000000,1.000000
3708463.734454,-33.000000,1.000000
3708463.736979,-34.000000,1.000000
3708463.736986,-17.000000,1.000000
3708463.739508,60.000000,1.000000
3708463.739511,84.000000,1.000000
3708463.747059,83.000000,1.000000
3708463.747065,65.000000,1.000000
3708463.755897,-11.000000,1.000000
3708463.755902,-35.000000,1.000000
3708463.763494,-36.000000,1.000000
3708463.763498,-18.000000,1.000000
3708463.782363,58.000000,1.000000
3708463.782368,84.000000,1.000000
3708463.782375,87.000000,1.000000
3708463.782376,68.000000,1.000000
3708463.786171,-10.000000,1.000000
3708463.786177,-33.000000,1.000000
3708463.798642,-31.000000,1.000000
3708463.798648,-14.000000,1.000000
3708463.804944,61.000000,1.000000
3708463.804947,85.000000,1.000000
3708463.811234,85.000000,1.000000
3708463.811237,68.000000,1.000000
3708463.818791,-8.000000,1.000000
3708463.818796,-31.000000,1.000000
3708463.827630,-31.000000,1.000000
3708463.827641,-15.000000,1.000000
3708463.836445,60.000000,1.000000
3708463.836451,85.000000,1.000000
3708463.842739,87.000000,1.000000
3708463.842742,70.000000,1.000000
3708463.852823,-8.000000,1.000000
3708463.852833,-31.000000,1.000000
3708463.860412,-33.000000,1.000000
3708463.860418,-18.000000,1.000000
3708463.869230,63.000000,1.000000
3708463.869236,85.000000,1.000000
3708463.874270,85.000000,1.000000
3708463.874273,70.000000,1.000000
3708463.886882,-7.000000,1.000000
3708463.886888,-30.000000,1.000000
3708463.890672,-31.000000,1.000000
3708463.890678,-14.000000,1.000000
3708463.899501,61.000000,1.000000
3708463.899507,87.000000,1.000000
3708463.907051,89.000000,1.000000
3708463.907053,70.000000,1.000000
3708463.920893,-5.000000,1.000000
3708463.920900,-29.000000,1.000000
3708463.923434,-29.000000,1.000000
3708463.923437,-12.000000,1.000000
3708463.932214,65.000000,1.000000
3708463.932217,88.000000,1.000000
3708463.941039,88.000000,1.000000
3708463.941042,71.000000,1.000000
3708463.947351,-6.000000,1.000000
3708463.947355,-30.000000,1.000000
3708463.977574,-33.000000,1.000000
3708463.977584,-16.000000,1.000000
3708463.980121,62.000000,1.000000
3708463.980125,83.000000,1.000000
3708463.981394,86.000000,1.000000
3708463.981397,72.000000,1.000000
3708463.981403,-5.000000,1.000000
3708463.981404,-30.000000,1.000000
3708463.986446,-31.000000,1.000000
3708463.986450,-14.000000,1.000000
3708463.995263,62.000000,1.000000
3708463.995267,88.000000,1.000000
3708464.017921,89.000000,1.000000
3708464.017927,73.000000,1.000000
3708464.032823,-3.000000,1.000000
3708464.032828,-28.000000,1.000000
3708464.034093,-29.000000,1.000000
3708464.034095,-14.000000,1.000000
3708464.034101,64.000000,1.000000
3708464.034103,88.000000,1.000000
3708464.035370,88.000000,1.000000
3708464.035376,71.000000,1.000000
3708464.046703,-6.000000,1.000000
3708464.046708,-31.000000,1.000000
3708464.050515,-32.000000,1.000000
3708464.050521,-15.000000,1.000000
3708464.059329,62.000000,1.000000
3708464.059335,87.000000,1.000000
3708464.068146,87.000000,1.000000
3708464.068152,70.000000,1.000000
3708464.075713,-6.000000,1.000000
3708464.075720,-32.000000,1.000000
3708464.082064,-32.000000,1.000000
3708464.082088,-13.000000,1.000000
3708464.090984,62.000000,1.000000
3708464.090987,85.000000,1.000000
3708464.100903,86.000000,1.000000
3708464.100907,70.000000,1.000000
3708464.107213,-5.000000,1.000000
3708464.107220,-29.000000,1.000000
3708464.116036,-32.000000,1.000000
3708464.116041,-13.000000,1.000000
3708464.125981,64.000000,1.000000
3708464.125984,88.000000,1.000000
3708464.129762,90.000000,1.000000
3708464.129769,71.000000,1.000000
3708464.138582,-5.000000,1.000000
3708464.138586,-28.000000,1.000000
3708464.148595,-29.000000,1.000000
3708464.148600,-14.000000,1.000000
3708464.167476,62.000000,1.000000
3708464.167480,86.000000,1.000000
3708464.167486,87.000000,1.000000
3708464.167487,71.000000,1.000000
3708464.170020,-8.000000,1.000000
3708464.170025,-33.000000,1.000000
3708464.178873,-33.000000,1.000000
3708464.178878,-16.000000,1.000000
3708464.187696,59.000000,1.000000
3708464.187702,82.000000,1.000000
3708464.206603,84.000000,1.000000
3708464.206608,68.000000,1.000000
3708464.206614,-9.000000,1.000000
3708464.206615,-32.000000,1.000000
3708464.209148,-32.000000,1.000000
3708464.209153,-16.000000,1.000000
3708464.219239,60.000000,1.000000
3708464.219244,85.000000,1.000000
3708464.228068,87.000000,1.000000
3708464.228073,68.000000,1.000000
3708464.236915,-5.000000,1.000000
3708464.236923,-32.000000,1.000000
3708464.243219,-32.000000,1.000000
3708464.243223,-15.000000,1.000000
3708464.252074,62.000000,1.000000
3708464.252077,85.000000,1.000000
3708464.260896,85.000000,1.000000
3708464.260900,68.000000,1.000000
3708464.267213,-7.000000,1.000000
3708464.267218,-32.000000,1.000000
3708464.276095,-33.000000,1.000000
3708464.276099,-15.000000,1.000000
3708464.283661,59.000000,1.000000
3708464.283664,85.000000,1.000000
3708464.292469,88.000000,1.000000
3708464.292473,70.000000,1.000000
3708464.317656,-7.000000,1.000000
3708464.317662,-31.000000,1.000000
3708464.331502,-32.000000,1.000000
3708464.331507,-15.000000,1.000000
3708464.332774,61.000000,1.000000
3708464.332777,85.000000,1.000000
3708464.335209,85.000000,1.000000
3708464.335215,69.000000,1.000000
3708464.335221,-6.000000,1.000000
3708464.335222,-30.000000,1.000000
3708464.339011,-34.000000,1.000000
3708464.339015,-17.000000,1.000000
3708464.347823,60.000000,1.000000
3708464.347825,84.000000,1.000000
3708464.356630,85.000000,1.000000
3708464.356633,68.000000,1.000000
3708464.362925,-9.000000,1.000000
3708464.362931,-33.000000,1.000000
3708464.381797,-34.000000,1.000000
3708464.381803,-17.000000,1.000000
3708464.381810,60.000000,1.000000
3708464.381812,84.000000,1.000000
3708464.388105,86.000000,1.000000
3708464.388109,69.000000,1.000000
3708464.399453,-7.000000,1.000000
3708464.399458,-30.000000,1.000000
3708464.403275,-32.000000,1.000000
3708464.403300,-16.000000,1.000000
3708464.412111,61.000000,1.000000
3708464.412117,85.000000,1.000000
3708464.420928,88.000000,1.000000
3708464.420933,71.000000,1.000000
3708464.427241,-8.000000,1.000000
3708464.427245,-32.000000,1.000000
3708464.434821,-30.000000,1.000000
3708464.434826,-16.000000,1.000000
3708464.453679,60.000000,1.000000
3708464.453684,84.000000,1.000000
3708464.453690,85.000000,1.000000
3708464.453696,68.000000,1.000000
3708464.461288,-9.000000,1.000000
3708464.461293,-32.000000,1.000000
3708464.475148,-33.000000,1.000000
3708464.475152,-16.000000,1.000000
3708464.477678,59.000000,1.000000
3708464.477684,83.000000,1.000000
3708464.491543,85.000000,1.000000
3708464.491549,69.000000,1.000000
3708464.494091,-8.000000,1.000000
3708464.494094,-32.000000,1.000000
3708464.501646,-32.000000,1.000000
3708464.501651,-13.000000,1.000000
3708464.507954,60.000000,1.000000
3708464.507958,80.000000,1.000000
3708464.516769,83.000000,1.000000
3708464.516773,66.000000,1.000000
3708464.525614,-11.000000,0.000000
3708464.525623,-39.000000,0.000000
3708464.531978,-41.000000,0.000000
3708464.531981,-21.000000,0.000000
3708464.540791,54.000000,0.000000
3708464.540793,79.000000,0.000000
3708464.547091,80.000000,0.000000
3708464.547094,62.000000,0.000000
3708464.555954,-15.000000,0.000000
3708464.555964,-39.000000,0.000000
3708464.567317,-40.000000,0.000000
3708464.567324,-25.000000,0.000000
3708464.571110,53.000000,0.000000
3708464.571115,77.000000,0.000000
3708464.579932,79.000000,0.000000
3708464.579938,61.000000,0.000000
3708464.588758,-18.000000,0.000000
3708464.588770,-39.000000,0.000000
3708464.619016,-42.000000,0.000000
3708464.619022,-25.000000,0.000000
3708464.619028,53.000000,0.000000
3708464.619030,78.000000,0.000000
3708464.631631,75.000000,0.000000
3708464.631635,59.000000,0.000000
3708464.632900,-17.000000,1.000000
3708464.632903,-40.000000,1.000000
3708464.635231,-41.000000,1.000000
3708464.635236,-26.000000,1.000000
3708464.637763,52.000000,1.000000
3708464.637768,76.000000,1.000000
3708464.644068,76.000000,1.000000
3708464.644072,62.000000,1.000000
3708464.655440,-16.000000,1.000000
3708464.655445,-41.000000,1.000000
3708464.661744,-40.000000,1.000000
3708464.661751,-23.000000,1.000000
3708464.666796,52.000000,1.000000
3708464.666799,77.000000,1.000000
3708464.675616,79.000000,1.000000
3708464.675619,63.000000,1.000000
3708464.684443,-15.000000,1.000000
3708464.684448,-41.000000,1.000000
3708464.690747,-40.000000,1.000000
3708464.690751,-24.000000,1.000000
3708464.699574,51.000000,1.000000
3708464.699580,75.000000,1.000000
3708464.708382,78.000000,1.000000
3708464.708385,61.000000,1.000000
3708464.715960,-14.000000,1.000000
3708464.715965,-39.000000,1.000000
3708464.722285,-40.000000,1.000000
3708464.722289,-26.000000,1.000000
3708464.732372,52.000000,1.000000
3708464.732378,76.000000,1.000000
3708464.751304,78.000000,1.000000
3708464.751310,61.000000,1.000000
3708464.751316,-17.000000,1.000000
3708464.751336,-41.000000,1.000000
3708464.756385,-42.000000,1.000000
3708464.756389,-25.000000,1.000000
3708464.765207,53.000000,1.000000
3708464.765212,78.000000,1.000000
3708464.771502,78.000000,1.000000
3708464.771508,62.000000,1.000000
3708464.780323,-16.000000,1.000000
3708464.780331,-40.000000,1.000000
3708464.786648,-41.000000,1.000000
3708464.786652,-25.000000,1.000000
3708464.795469,55.000000,1.000000
3708464.795473,78.000000,1.000000
3708464.804290,78.000000,1.000000
3708464.804296,61.000000,1.000000
3708464.813069,-16.000000,1.000000
3708464.813098,-40.000000,1.000000
3708464.818299,-40.000000,1.000000
3708464.818324,-23.000000,1.000000
3708464.828369,53.000000,1.000000
3708464.828375,77.000000,1.000000
3708464.837192,78.000000,1.000000
3708464.837195,62.000000,1.000000
3708464.843518,-16.000000,1.000000
3708464.843524,-40.000000,1.000000
3708464.852371,-41.000000,1.000000
3708464.852375,-23.000000,1.000000
3708464.871250,52.000000,1.000000
3708464.871254,76.000000,1.000000
3708464.871261,77.000000,1.000000
3708464.871262,59.000000,1.000000
3708464.877565,-17.000000,1.000000
3708464.877570,-41.000000,1.000000
3708464.882616,-41.000000,1.000000
3708464.882620,-23.000000,1.000000
3708464.892683,51.000000,1.000000
3708464.892687,76.000000,1.000000
3708464.917922,80.000000,1.000000
3708464.917927,61.000000,1.000000
3708464.917933,-17.000000,1.000000
3708464.917934,-40.000000,1.000000
3708464.931773,-41.000000,1.000000
3708464.931776,-26.000000,1.000000
3708464.933044,52.000000,1.000000
3708464.933050,76.000000,1.000000
3708464.934315,80.000000,1.000000
3708464.934321,61.000000,1.000000
3708464.940490,-17.000000,1.000000
3708464.940495,-41.000000,1.000000
3708464.948045,-41.000000,1.000000
3708464.948049,-25.000000,1.000000
3708464.956855,51.000000,1.000000
3708464.956858,76.000000,1.000000
3708464.963154,77.000000,1.000000
3708464.963160,61.000000,1.000000
3708464.972001,-15.000000,1.000000
3708464.972006,-39.000000,1.000000
3708464.980832,-41.000000,1.000000
3708464.980843,-24.000000,1.000000
3708464.987141,53.000000,1.000000
3708464.987147,76.000000,1.000000
3708464.998472,76.000000,1.000000
3708464.998476,58.000000,1.000000
3708465.004790,-17.000000,1.000000
3708465.004796,-40.000000,1.000000
3708465.023695,-41.000000,1.000000
3708465.023700,-25.000000,1.000000
3708465.023706,51.000000,1.000000
3708465.023711,76.000000,1.000000
3708465.026236,76.000000,1.000000
3708465.026239,60.000000,1.000000
3708465.035091,-15.000000,1.000000
3708465.035098,-39.000000,1.000000
3708465.045048,-41.000000,1.000000
3708465.045053,-25.000000,1.000000
3708465.063944,52.000000,1.000000
3708465.063949,77.000000,1.000000
3708465.063955,77.000000,1.000000
3708465.063957,60.000000,1.000000
3708465.066498,-17.000000,1.000000
3708465.066505,-40.000000,1.000000
3708465.075311,-39.000000,1.000000
3708465.075315,-24.000000,1.000000
3708465.084121,53.000000,1.000000
3708465.084126,77.000000,1.000000
3708465.095450,78.000000,1.000000
3708465.095454,60.000000,1.000000
3708465.099298,-18.000000,1.000000
3708465.099305,-41.000000,1.000000
3708465.108143,-42.000000,1.000000
3708465.108148,-23.000000,1.000000
3708465.116720,51.000000,1.000000
3708465.116725,72.000000,1.000000
3708465.123029,68.000000,1.000000
3708465.123032,49.000000,1.000000
3708465.131871,-32.000000,1.000000
3708465.131877,-60.000000,1.000000
3708465.140692,-64.000000,1.000000
3708465.140696,-49.000000,1.000000
3708465.149519,23.000000,1.000000
3708465.149533,43.000000,1.000000
3708465.155839,41.000000,1.000000
3708465.155842,20.000000,1.000000
3708465.175976,-59.000000,1.000000
3708465.175983,-88.000000,1.000000
3708465.175989,-95.000000,1.000000
3708465.175990,-79.000000,1.000000
3708465.179772,-4.000000,1.000000
3708465.179778,16.000000,1.000000
3708465.188585,12.000000,1.000000
3708465.188588,-9.000000,1.000000
3708465.196151,-88.000000,1.000000
3708465.196157,-116.000000,1.000000
3708465.217543,-120.000000,1.000000
3708465.217553,-106.000000,1.000000
3708465.231440,-32.000000,1.000000
3708465.231444,-9.000000,1.000000
3708465.232724,-12.000000,1.000000
3708465.232731,-30.000000,1.000000
3708465.257901,-110.000000,1.000000
3708465.257909,-135.000000,1.000000
3708465.259189,-138.000000,1.000000
3708465.259192,-121.000000,1.000000
3708465.262989,-47.000000,1.000000
3708465.262993,-26.000000,1.000000
3708465.265524,-27.000000,1.000000
3708465.265530,-45.000000,1.000000
3708465.266801,-124.000000,1.000000
3708465.266804,-149.000000,1.000000
3708465.268084,-149.000000,1.000000
3708465.268087,-135.000000,1.000000
3708465.275682,-61.000000,1.000000
3708465.275687,-37.000000,1.000000
3708465.294616,-36.000000,1.000000
3708465.294620,-53.000000,1.000000
3708465.294627,-129.000000,1.000000
3708465.294628,-152.000000,1.000000
3708465.299673,-153.000000,1.000000
3708465.299676,-135.000000,1.000000
3708465.308553,-58.000000,1.000000
3708465.308557,-34.000000,1.000000
3708465.316133,-34.000000,1.000000
3708465.316139,-51.000000,1.000000
3708465.324995,-128.000000,1.000000
3708465.325000,-153.000000,1.000000
3708465.343879,-152.000000,1.000000
3708465.343886,-137.000000,1.000000
3708465.343893,-59.000000,1.000000
3708465.343894,-32.000000,1.000000
3708465.347678,-33.000000,1.000000
3708465.347684,-50.000000,1.000000
3708465.357839,-128.000000,1.000000
3708465.357850,-152.000000,1.000000
3708465.364137,-152.000000,1.000000
3708465.364142,-135.000000,1.000000
3708465.372948,-59.000000,1.000000
3708465.372951,-33.000000,1.000000
3708465.379244,-33.000000,1.000000
3708465.379247,-53.000000,1.000000
3708465.388077,-127.000000,1.000000
3708465.388082,-151.000000,1.000000
3708465.396734,-151.000000,1.000000
3708465.396738,-131.000000,1.000000
3708465.403044,-59.000000,1.000000
3708465.403050,-37.000000,1.000000
3708465.411867,-34.000000,1.000000
3708465.411873,-50.000000,1.000000
3708465.420723,-126.000000,1.000000
3708465.420729,-149.000000,1.000000
3708465.429564,-152.000000,1.000000
3708465.429568,-135.000000,1.000000
3708465.434612,-58.000000,1.000000
3708465.434618,-35.000000,1.000000
3708465.447205,-33.000000,1.000000
3708465.447209,-51.000000,1.000000
3708465.451058,-127.000000,1.000000
3708465.451064,-151.000000,1.000000
3708465.459905,-152.000000,1.000000
3708465.459910,-135.000000,1.000000
3708465.468728,-58.000000,1.000000
3708465.468734,-34.000000,1.000000
3708465.481306,-32.000000,1.000000
3708465.481311,-49.000000,1.000000
3708465.483838,-125.000000,1.000000
3708465.483855,-150.000000,1.000000
3708465.491504,-153.000000,1.000000
3708465.491507,-134.000000,1.000000
3708465.519220,-57.000000,1.000000
3708465.519230,-33.000000,1.000000
3708465.531818,-32.000000,1.000000
3708465.531824,-51.000000,1.000000
3708465.533089,-127.000000,1.000000
3708465.533091,-150.000000,1.000000
3708465.534360,-152.000000,1.000000
3708465.534366,-134.000000,1.000000
3708465.536890,-58.000000,1.000000
3708465.536896,-35.000000,1.000000
3708465.539420,-32.000000,1.000000
3708465.539423,-49.000000,1.000000
3708465.546974,-128.000000,1.000000
3708465.546980,-151.000000,1.000000
3708465.555733,-151.000000,1.000000
3708465.555737,-134.000000,1.000000
3708465.564553,-60.000000,1.000000
3708465.564559,-32.000000,1.000000
3708465.583447,-30.000000,1.000000
3708465.583454,-49.000000,1.000000
3708465.583461,-126.000000,1.000000
3708465.583462,-150.000000,1.000000
3708465.587250,-151.000000,1.000000
3708465.587254,-132.000000,1.000000
3708465.596084,-57.000000,1.000000
3708465.596090,-34.000000,1.000000
3708465.606158,-33.000000,1.000000
3708465.606161,-49.000000,1.000000
3708465.612474,-127.000000,1.000000
3708465.612480,-150.000000,1.000000
3708465.618789,-152.000000,1.000000
3708465.618793,-135.000000,1.000000
3708465.627596,-58.000000,1.000000
3708465.627602,-34.000000,1.000000
3708465.636423,-31.000000,1.000000
3708465.636425,-48.000000,1.000000
3708465.643984,-124.000000,1.000000
3708465.643999,-151.000000,1.000000
3708465.652864,-151.000000,1.000000
3708465.652867,-133.000000,1.000000
3708465.660272,-58.000000,1.000000
3708465.660274,-36.000000,1.000000
3708465.666568,-35.000000,1.000000
3708465.666571,-52.000000,1.000000
3708465.675396,-128.000000,1.000000
3708465.675404,-154.000000,1.000000
3708465.686736,-154.000000,1.000000
3708465.686743,-134.000000,1.000000
3708465.690520,-58.000000,1.000000
3708465.690523,-32.000000,1.000000
3708465.699321,-32.000000,1.000000
3708465.699328,-49.000000,1.000000
3708465.706926,-125.000000,1.000000
3708465.706933,-149.000000,1.000000
3708465.717053,-148.000000,1.000000
3708465.717057,-129.000000,1.000000
3708465.723350,-55.000000,1.000000
3708465.723353,-31.000000,1.000000
3708465.742246,-28.000000,1.000000
3708465.742250,-43.000000,1.000000
3708465.742257,-118.000000,1.000000
3708465.742258,-145.000000,1.000000
3708465.748596,-147.000000,1.000000
3708465.748606,-130.000000,1.000000
3708465.767476,-52.000000,1.000000
3708465.767483,-29.000000,1.000000
3708465.767490,-29.000000,1.000000
3708465.767493,-45.000000,1.000000
3708465.770042,-121.000000,1.000000
3708465.770048,-146.000000,1.000000
3708465.781421,-148.000000,1.000000
3708465.781426,-130.000000,1.000000
3708465.787726,-54.000000,1.000000
3708465.787731,-30.000000,1.000000
3708465.796535,-29.000000,1.000000
3708465.796541,-45.000000,1.000000
3708465.817962,-123.000000,1.000000
3708465.817968,-148.000000,1.000000
3708465.832924,-149.000000,1.000000
3708465.832930,-131.000000,1.000000
3708465.834201,-55.000000,1.000000
3708465.834208,-31.000000,1.000000
3708465.836738,-34.000000,1.000000
3708465.836741,-52.000000,1.000000
3708465.838011,-126.000000,1.000000
3708465.838015,-148.000000,1.000000
3708465.844323,-147.000000,1.000000
3708465.844331,-131.000000,1.000000
3708465.851894,-55.000000,1.000000
3708465.851900,-31.000000,1.000000
3708465.863212,-30.000000,1.000000
3708465.863216,-46.000000,1.000000
3708465.865747,-122.000000,1.000000
3708465.865754,-147.000000,1.000000
3708465.874673,-148.000000,1.000000
3708465.874682,-131.000000,1.000000
3708465.884648,-53.000000,1.000000
3708465.884654,-30.000000,1.000000
3708465.903590,-29.000000,1.000000
3708465.903594,-45.000000,1.000000
3708465.903601,-122.000000,1.000000
3708465.903602,-146.000000,1.000000
3708465.907413,-147.000000,1.000000
3708465.907417,-129.000000,1.000000
3708465.916239,-53.000000,1.000000
3708465.916245,-29.000000,1.000000
3708465.925050,-26.000000,1.000000
3708465.925053,-44.000000,1.000000
3708465.931356,-121.000000,1.000000
3708465.931362,-145.000000,1.000000
3708465.938923,-147.000000,1.000000
3708465.938928,-131.000000,1.000000
3708465.947742,-55.000000,1.000000
3708465.947745,-29.000000,1.000000
3708465.956544,-27.000000,1.000000
3708465.956547,-45.000000,1.000000
3708465.962853,-120.000000,1.000000
3708465.962857,-145.000000,1.000000
3708465.972743,-147.000000,1.000000
3708465.972754,-130.000000,1.000000
3708465.980318,-52.000000,1.000000
3708465.980321,-28.000000,1.000000
3708465.989144,-27.000000,1.000000
3708465.989147,-44.000000,1.000000
3708465.996733,-122.000000,1.000000
3708465.996738,-147.000000,1.000000
3708466.014436,-147.000000,1.000000
3708466.014441,-127.000000,1.000000
3708466.014447,-47.000000,1.000000
3708466.014453,-21.000000,1.000000
3708466.020763,-18.000000,1.000000
3708466.020766,-31.000000,1.000000
3708466.034712,-107.000000,1.000000
3708466.034719,-129.000000,1.000000
3708466.037253,-130.000000,1.000000
3708466.037257,-113.000000,1.000000
3708466.048582,-36.000000,1.000000
3708466.048586,-14.000000,1.000000
3708466.051114,-11.000000,1.000000
3708466.051119,-28.000000,1.000000
3708466.063756,-104.000000,1.000000
3708466.063761,-127.000000,1.000000
3708466.067548,-127.000000,1.000000
3708466.067552,-110.000000,1.000000
3708466.075114,-33.000000,1.000000
3708466.075117,-10.000000,1.000000
3708466.083928,-8.000000,1.000000
3708466.083932,-24.000000,1.000000
3708466.092819,-100.000000,1.000000
3708466.092831,-125.000000,1.000000
3708466.118025,-127.000000,1.000000
3708466.118031,-109.000000,1.000000
3708466.132968,-33.000000,1.000000
3708466.133043,-9.000000,1.000000
3708466.134315,-10.000000,1.000000
3708466.134318,-25.000000,1.000000
3708466.134323,-102.000000,1.000000
3708466.134324,-125.000000,1.000000
3708466.136849,-126.000000,1.000000
3708466.136856,-110.000000,1.000000
3708466.139378,-34.000000,1.000000
3708466.139380,-10.000000,1.000000
3708466.146925,-9.000000,1.000000
3708466.146928,-26.000000,1.000000
3708466.155753,-103.000000,1.000000
3708466.155759,-127.000000,1.000000
3708466.164589,-126.000000,1.000000
3708466.164592,-110.000000,1.000000
3708466.183455,-31.000000,1.000000
3708466.183462,-9.000000,1.000000
3708466.183468,-8.000000,1.000000
3708466.183469,-25.000000,1.000000
3708466.187100,-100.000000,1.000000
3708466.187105,-126.000000,1.000000
3708466.195957,-127.000000,1.000000
3708466.195964,-109.000000,1.000000
3708466.207286,-32.000000,1.000000
3708466.207290,-10.000000,1.000000
3708466.211069,-8.000000,1.000000
3708466.211074,-24.000000,1.000000
3708466.218635,-100.000000,1.000000
3708466.218642,-124.000000,1.000000
3708466.227486,-126.000000,1.000000
3708466.227491,-108.000000,1.000000
3708466.236301,-30.000000,1.000000
3708466.236307,-6.000000,1.000000
3708466.243780,-6.000000,1.000000
3708466.243795,-25.000000,1.000000
3708466.252629,-100.000000,1.000000
3708466.252642,-125.000000,1.000000
3708466.261467,-125.000000,1.000000
3708466.261472,-108.000000,1.000000
3708466.270284,-32.000000,1.000000
3708466.270288,-8.000000,1.000000
3708466.276585,-5.000000,1.000000
3708466.276589,-24.000000,1.000000
3708466.286821,-101.000000,1.000000
3708466.286827,-124.000000,1.000000
3708466.290652,-126.000000,1.000000
3708466.290656,-109.000000,1.000000
3708466.299477,-34.000000,1.000000
3708466.299483,-8.000000,1.000000
3708466.308300,-6.000000,1.000000
3708466.308304,-24.000000,1.000000
3708466.327055,-102.000000,1.000000
3708466.327061,-124.000000,1.000000
3708466.327067,-121.000000,1.000000
3708466.327072,-98.000000,1.000000
3708466.329595,-17.000000,1.000000
3708466.329601,9.000000,1.000000
3708466.338405,16.000000,1.000000
3708466.338411,8.000000,1.000000
3708466.347226,-63.000000,0.000000
3708466.347232,-83.000000,0.000000
3708466.357397,-76.000000,0.000000
3708466.357401,-52.000000,0.000000
3708466.363705,30.000000,0.000000
3708466.363708,59.000000,0.000000
3708466.375017,64.000000,0.000000
3708466.375020,56.000000,0.000000
3708466.381408,-16.000000,0.000000
3708466.381415,-37.000000,0.000000
3708466.386458,-34.000000,0.000000
3708466.386463,-14.000000,0.000000
3708466.399081,62.000000,0.000000
3708466.399085,86.000000,0.000000
3708466.417984,87.000000,0.000000
3708466.417989,69.000000,0.000000
3708466.431843,-5.000000,1.000000
3708466.431848,-28.000000,1.000000
3708466.433116,-29.000000,1.000000
3708466.433121,-13.000000,1.000000
3708466.435653,65.000000,1.000000
3708466.435656,87.000000,1.000000
3708466.438181,87.000000,1.000000
3708466.438184,69.000000,1.000000
3708466.445760,-7.000000,1.000000
3708466.445765,-30.000000,1.000000
3708466.450664,-31.000000,1.000000
3708466.450667,-15.000000,1.000000
3708466.463251,63.000000,1.000000
3708466.463255,87.000000,1.000000
3708466.467047,86.000000,1.000000
3708466.467051,68.000000,1.000000
3708466.475876,-8.000000,1.000000
3708466.475888,-30.000000,1.000000
3708466.484716,-32.000000,1.000000
3708466.484721,-16.000000,1.000000
3708466.489749,60.000000,1.000000
3708466.489752,83.000000,1.000000
3708466.499829,84.000000,1.000000
3708466.499834,70.000000,1.000000
3708466.507392,-6.000000,1.000000
3708466.507397,-31.000000,1.000000
3708466.536162,-32.000000,1.000000
3708466.536170,-14.000000,1.000000
3708466.538701,61.000000,1.000000
3708466.538709,87.000000,1.000000
3708466.539981,87.000000,1.000000
3708466.539985,69.000000,1.000000
3708466.541250,-6.000000,1.000000
3708466.541253,-32.000000,1.000000
3708466.547574,-31.000000,1.000000
3708466.547579,-13.000000,1.000000
3708466.566440,63.000000,1.000000
3708466.566446,85.000000,1.000000
3708466.566452,85.000000,1.000000
3708466.566453,68.000000,1.000000
3708466.570249,-7.000000,1.000000
3708466.570257,-26.000000,1.000000
3708466.580227,-27.000000,1.000000
3708466.580232,-10.000000,1.000000
3708466.599119,67.000000,1.000000
3708466.599124,91.000000,1.000000
3708466.599131,92.000000,1.000000
3708466.599133,73.000000,1.000000
3708466.604209,-3.000000,1.000000
3708466.604215,-24.000000,1.000000
3708466.610517,-29.000000,1.000000
3708466.610521,-12.000000,1.000000
3708466.619347,66.000000,1.000000
3708466.619350,89.000000,1.000000
3708466.630695,90.000000,1.000000
3708466.630708,73.000000,1.000000
3708466.637034,-4.000000,1.000000
3708466.637042,-27.000000,1.000000
3708466.645868,-29.000000,1.000000
3708466.645871,-13.000000,1.000000
3708466.652170,64.000000,1.000000
3708466.652176,90.000000,1.000000
3708466.660991,90.000000,1.000000
3708466.660996,73.000000,1.000000
3708466.667444,-3.000000,1.000000
3708466.667451,-28.000000,1.000000
3708466.676284,-27.000000,1.000000
3708466.676288,-11.000000,1.000000
3708466.683853,63.000000,1.000000
3708466.683860,89.000000,1.000000
3708466.693928,89.000000,1.000000
3708466.693932,72.000000,1.000000
3708466.719223,-3.000000,1.000000
3708466.719231,-27.000000,1.000000
3708466.731830,-29.000000,1.000000
3708466.731836,-13.000000,1.000000
3708466.733109,64.000000,1.000000
3708466.733113,89.000000,1.000000
3708466.734379,91.000000,1.000000
3708466.734383,73.000000,1.000000
3708466.735654,-4.000000,1.000000
3708466.735659,-28.000000,1.000000
3708466.738188,-29.000000,1.000000
3708466.738201,-12.000000,1.000000
3708466.746940,66.000000,1.000000
3708466.746953,90.000000,1.000000
3708466.755779,91.000000,1.000000
3708466.755784,73.000000,1.000000
3708466.764620,-3.000000,1.000000
3708466.764639,-27.000000,1.000000
3708466.770945,-28.000000,1.000000
3708466.770952,-11.000000,1.000000
3708466.779649,67.000000,1.000000
3708466.779655,90.000000,1.000000
3708466.790987,92.000000,1.000000
3708466.790990,75.000000,1.000000
3708466.797389,-4.000000,1.000000
3708466.797404,-26.000000,1.000000
3708466.803777,-28.000000,1.000000
3708466.803792,-9.000000,1.000000
3708466.812630,66.000000,1.000000
3708466.812636,87.000000,1.000000
3708466.821462,89.000000,1.000000
3708466.821466,74.000000,1.000000
3708466.827783,0.000000,1.000000
3708466.827788,-27.000000,1.000000
3708466.835364,-28.000000,1.000000
3708466.835375,-11.000000,1.000000
3708466.855510,66.000000,1.000000
3708466.855514,90.000000,1.000000
3708466.855521,93.000000,1.000000
3708466.855522,75.000000,1.000000
3708466.860568,-3.000000,1.000000
3708466.860573,-27.000000,1.000000
3708466.879462,-28.000000,1.000000
3708466.879470,-10.000000,1.000000
3708466.879477,66.000000,1.000000
3708466.879479,90.000000,1.000000
3708466.883260,91.000000,1.000000
3708466.883265,76.000000,1.000000
3708466.890842,-1.000000,1.000000
3708466.890849,-26.000000,1.000000
3708466.900856,-28.000000,1.000000
3708466.900864,-10.000000,1.000000
3708466.909703,65.000000,1.000000
3708466.909706,90.000000,1.000000
3708466.918522,91.000000,1.000000
3708466.918528,75.000000,1.000000
3708466.923577,-2.000000,1.000000
3708466.923587,-28.000000,1.000000
3708466.931155,-27.000000,1.000000
3708466.931165,-11.000000,1.000000
3708466.939975,66.000000,1.000000
3708466.939978,90.000000,1.000000
3708466.946273,90.000000,1.000000
3708466.946279,73.000000,1.000000
3708466.955101,-2.000000,1.000000
3708466.955106,-26.000000,1.000000
3708466.966433,-27.000000,1.000000
3708466.966441,-9.000000,1.000000
3708466.970214,65.000000,1.000000
3708466.970220,90.000000,1.000000
3708466.980254,90.000000,1.000000
3708466.980258,73.000000,1.000000
3708466.989092,-2.000000,1.000000
3708466.989097,-27.000000,1.000000
3708467.023169,-27.000000,1.000000
3708467.023178,-9.000000,1.000000
3708467.023185,66.000000,1.000000
3708467.023186,89.000000,1.000000
3708467.032017,91.000000,1.000000
3708467.032023,74.000000,1.000000
3708467.033292,-3.000000,1.000000
3708467.033298,-25.000000,1.000000
3708467.034563,-26.000000,1.000000
3708467.034565,-12.000000,1.000000
3708467.037090,67.000000,1.000000
3708467.037097,91.000000,1.000000
3708467.043382,91.000000,1.000000
3708467.043385,74.000000,1.000000
3708467.053463,0.000000,1.000000
3708467.053469,-25.000000,1.000000
3708467.059786,-26.000000,1.000000
3708467.059791,-10.000000,1.000000
3708467.066083,67.000000,1.000000
3708467.066086,91.000000,1.000000
3708467.074912,91.000000,1.000000
3708467.074917,73.000000,1.000000
3708467.083949,-4.000000,1.000000
3708467.083976,-27.000000,1.000000
3708467.094042,-27.000000,1.000000
3708467.094049,-11.000000,1.000000
3708467.099108,64.000000,1.000000
3708467.099111,89.000000,1.000000
3708467.109178,89.000000,1.000000
3708467.109181,74.000000,1.000000
3708467.115481,-2.000000,1.000000
3708467.115486,-26.000000,1.000000
3708467.134377,-27.000000,1.000000
3708467.134383,-10.000000,1.000000
3708467.134388,66.000000,1.000000
3708467.134408,89.000000,1.000000
3708467.139446,91.000000,1.000000
3708467.139449,74.000000,1.000000
3708467.145744,-3.000000,1.000000
3708467.145749,-26.000000,1.000000
3708467.155826,-29.000000,1.000000
3708467.155830,-14.000000,1.000000
3708467.164644,64.000000,1.000000
3708467.164650,89.000000,1.000000
3708467.183546,90.000000,1.000000
3708467.183552,73.000000,1.000000
3708467.183559,-4.000000,1.000000
3708467.183560,-27.000000,1.000000
3708467.187341,-28.000000,1.000000
3708467.187346,-11.000000,1.000000
3708467.196160,64.000000,1.000000
3708467.196165,87.000000,1.000000
3708467.203723,90.000000,1.000000
3708467.203729,73.000000,1.000000
3708467.212563,-2.000000,1.000000
3708467.212575,-27.000000,1.000000
3708467.218897,-28.000000,1.000000
3708467.218902,-10.000000,1.000000
3708467.227708,66.000000,1.000000
3708467.227711,91.000000,1.000000
3708467.236518,92.000000,1.000000
3708467.236520,74.000000,1.000000
3708467.242910,-2.000000,1.000000
3708467.242915,-27.000000,1.000000
3708467.251828,-29.000000,1.000000
3708467.251833,-12.000000,1.000000
3708467.260644,64.000000,1.000000
3708467.260650,89.000000,1.000000
3708467.269468,90.000000,1.000000
3708467.269471,73.000000,1.000000
3708467.275770,-4.000000,1.000000
3708467.275776,-29.000000,1.000000
3708467.294644,-29.000000,1.000000
3708467.294651,-12.000000,1.000000
3708467.294657,66.000000,1.000000
3708467.294658,90.000000,1.000000
3708467.321164,91.000000,1.000000
3708467.321171,73.000000,1.000000
3708467.331239,-2.000000,1.000000
3708467.331245,-27.000000,1.000000
3708467.332514,-28.000000,1.000000
3708467.332518,-10.000000,1.000000
3708467.334863,67.000000,1.000000
3708467.334867,91.000000,1.000000
3708467.336146,92.000000,1.000000
3708467.336149,74.000000,1.000000
3708467.341237,-3.000000,1.000000
3708467.341241,-25.000000,1.000000
3708467.347554,-26.000000,1.000000
3708467.347558,-11.000000,1.000000
3708467.355109,64.000000,1.000000
3708467.355115,88.000000,1.000000
3708467.363928,91.000000,1.000000
3708467.363932,75.000000,1.000000
3708467.372833,-3.000000,1.000000
3708467.372838,-27.000000,1.000000
3708467.379133,-27.000000,1.000000
3708467.379137,-11.000000,1.000000
3708467.387961,65.000000,1.000000
3708467.387967,88.000000,1.000000
3708467.400400,90.000000,1.000000
3708467.400421,74.000000,1.000000
3708467.411771,-4.000000,1.000000
3708467.411776,-28.000000,1.000000
3708467.411782,-29.000000,1.000000
3708467.411783,-12.000000,1.000000
3708467.430681,65.000000,1.000000
3708467.430686,91.000000,1.000000
3708467.430692,90.000000,1.000000
3708467.430694,71.000000,1.000000
3708467.437014,-4.000000,1.000000
3708467.437019,-27.000000,1.000000
3708467.445895,-28.000000,1.000000
3708467.445899,-11.000000,1.000000
3708467.452202,66.000000,1.000000
3708467.452208,89.000000,1.000000
3708467.461020,90.000000,1.000000
3708467.461025,75.000000,1.000000
3708467.466131,-1.000000,1.000000
3708467.466136,-25.000000,1.000000
3708467.474944,-28.000000,1.000000
3708467.474951,-10.000000,1.000000
3708467.487459,66.000000,1.000000
3708467.487462,91.000000,1.000000
3708467.491242,92.000000,1.000000
3708467.491245,73.000000,1.000000
3708467.500081,-2.000000,1.000000
3708467.500085,-26.000000,1.000000
3708467.508912,-28.000000,1.000000
3708467.508916,-10.000000,1.000000
3708467.517751,65.000000,1.000000
3708467.517756,89.000000,1.000000
3708467.522790,90.000000,1.000000
3708467.522792,73.000000,1.000000
3708467.532882,-4.000000,1.000000
3708467.532887,-29.000000,1.000000
3708467.541731,-28.000000,1.000000
3708467.541735,-10.000000,1.000000
3708467.550539,65.000000,1.000000
3708467.550542,88.000000,1.000000
3708467.556835,91.000000,1.000000
3708467.556838,74.000000,1.000000
3708467.566934,-3.000000,1.000000
3708467.566943,-27.000000,1.000000
3708467.573283,-28.000000,1.000000
3708467.573286,-11.000000,1.000000
3708467.579588,65.000000,1.000000
3708467.579594,88.000000,1.000000
3708467.588328,90.000000,1.000000
3708467.588331,74.000000,1.000000
3708467.595892,-3.000000,1.000000
3708467.595899,-27.000000,1.000000
3708467.618407,-30.000000,1.000000
3708467.618413,-12.000000,1.000000
3708467.632286,65.000000,1.000000
3708467.632291,90.000000,1.000000
