timestamp,ch0,ch1
3708366.473,32,815
3708366.473,6,832
3708366.484,4,832
3708366.484,20,817
3708366.49,101,753
3708366.49,125,735
3708366.517,127,736
3708366.517,109,751
3708366.531,30,815
3708366.531,5,832
3708366.532,4,833
3708366.532,21,817
3708366.533,99,753
3708366.533,125,736
3708366.536,128,735
3708366.536,110,749
3708366.539,29,814
3708366.539,5,832
3708366.549,6,831
3708366.549,21,816
3708366.556,100,753
3708366.556,125,734
3708366.566,127,734
3708366.566,110,750
3708366.572,30,817
3708366.572,5,833
3708366.589,5,833
3708366.589,21,818
3708366.589,100,753
3708366.589,126,736
3708366.593,126,735
3708366.593,109,751
3708366.602,32,814
3708366.602,6,831
3708366.611,3,832
3708366.611,22,818
3708366.63,100,754
3708366.63,126,736
3708366.631,128,735
3708366.631,111,749
3708366.634,32,813
3708366.634,7,832
3708366.643,7,831
3708366.643,23,818
3708366.651,102,753
3708366.651,127,735
3708366.662,129,735
3708366.663,111,750
3708366.666,33,814
3708366.666,8,831
3708366.694,6,832
3708366.694,24,817
3708366.695,103,753
3708366.695,128,735
3708366.697,130,735
3708366.697,113,749
3708366.698,33,815
3708366.698,6,832
3708366.707,5,833
3708366.707,20,817
3708366.716,100,754
3708366.716,128,737
3708366.729,129,735
3708366.729,112,750
3708366.735,29,815
3708366.735,4,831
3708366.737,4,832
3708366.737,24,817
3708366.748,102,753
3708366.748,126,737
3708366.755,127,735
3708366.755,112,750
3708366.761,32,814
3708366.761,6,831
3708366.77,5,832
3708366.77,22,816
3708366.779,102,753
3708366.779,125,735
3708366.787,126,736
3708366.787,110,751
3708366.798,31,813
3708366.798,7,831
3708366.816,4,831
3708366.816,22,816
3708366.83,102,751
3708366.83,127,734
3708366.832,130,734
3708366.832,112,750
3708366.834,34,815
3708366.834,7,832
3708366.836,5,831
3708366.836,23,815
3708366.842,101,753
3708366.842,126,737
3708366.861,127,736
3708366.861,112,749
3708366.861,33,811
3708366.861,7,831
3708366.867,3,831
3708366.867,21,816
3708366.877,99,754
3708366.877,125,736
3708366.883,125,734
3708366.883,111,750
3708366.892,31,814
3708366.892,4,830
3708366.91,5,830
3708366.91,23,815
3708366.91,103,751
3708366.91,124,734
3708366.914,127,734
3708366.914,109,750
3708366.926,32,813
3708366.926,6,829
3708366.933,3,830
3708366.933,20,816
3708366.939,101,753
3708366.939,126,735
3708366.948,128,735
3708366.948,110,751
3708366.954,30,814
3708366.954,4,831
3708366.963,4,830
3708366.963,22,815
3708366.972,102,752
3708366.972,127,736
3708366.981,128,736
3708366.981,109,751
3708366.986,30,813
3708366.986,3,831
3708366.997,4,832
3708366.997,21,816
3708367.003,98,753
3708367.003,124,735
3708367.01,125,735
3708367.01,108,752
3708367.02,28,814
3708367.02,3,831
3708367.033,3,832
3708367.033,22,817
3708367.036,102,753
3708367.036,127,736
3708367.042,128,735
3708367.042,109,751
3708367.051,30,815
3708367.051,7,833
3708367.057,3,833
3708367.057,21,817
3708367.066,100,754
3708367.066,126,737
3708367.075,127,737
3708367.075,109,752
3708367.084,31,815
3708367.084,7,832
3708367.091,5,832
3708367.091,20,818
3708367.115,99,755
3708367.115,126,737
3708367.129,127,736
3708367.129,109,751
3708367.131,30,815
3708367.131,5,831
3708367.133,6,833
3708367.133,20,819
3708367.136,99,754
3708367.136,125,737
3708367.142,126,737
3708367.142,108,753
3708367.148,30,818
3708367.148,7,834
3708367.158,3,834
3708367.158,22,817
3708367.162,100,755
3708367.162,126,738
3708367.171,125,737
3708367.171,107,752
3708367.185,29,815
3708367.185,3,832
3708367.188,3,834
3708367.189,19,820
3708367.195,99,754
3708367.195,124,736
3708367.204,125,739
3708367.204,108,753
3708367.21,30,817
3708367.21,4,833
3708367.219,4,834
3708367.219,21,819
3708367.228,99,754
3708367.228,124,737
3708367.234,125,739
3708367.234,108,755
3708367.243,30,817
3708367.243,5,835
3708367.25,5,836
3708367.25,22,822
3708367.259,101,759
3708367.259,123,740
3708367.265,125,740
3708367.265,108,755
3708367.277,31,818
3708367.277,6,835
3708367.286,4,836
3708367.286,22,819
3708367.291,100,756
3708367.291,124,741
3708367.298,126,740
3708367.298,109,754
3708367.317,31,818
3708367.317,6,836
3708367.317,3,835
3708367.317,23,821
3708367.322,99,756
3708367.322,125,739
3708367.33,127,739
3708367.33,109,755
3708367.339,30,818
3708367.339,7,835
3708367.347,5,836
3708367.347,22,821
3708367.354,100,757
3708367.354,125,740
3708367.362,126,740
3708367.362,111,754
3708367.371,35,819
3708367.371,6,836
3708367.38,3,837
3708367.38,21,821
3708367.386,99,758
3708367.386,125,740
3708367.395,128,740
3708367.395,111,755
3708367.417,30,820
3708367.417,5,836
3708367.43,5,838
3708367.43,22,823
3708367.434,99,759
3708367.434,124,743
3708367.434,126,742
3708367.434,109,757
3708367.436,31,820
3708367.436,4,838
3708367.453,2,838
3708367.453,19,823
3708367.453,99,760
3708367.453,126,742
3708367.457,125,741
3708367.457,107,755
3708367.466,28,820
3708367.466,4,839
3708367.475,0,838
3708367.475,19,822
3708367.483,98,760
3708367.483,123,741
3708367.49,124,741
3708367.49,109,757
3708367.499,29,819
3708367.499,3,837
3708367.507,1,839
3708367.507,18,823
3708367.514,99,758
3708367.514,124,741
3708367.521,124,741
3708367.521,105,757
3708367.53,29,820
3708367.53,3,839
3708367.54,1,838
3708367.54,17,823
3708367.546,98,758
3708367.546,123,740
3708367.555,123,742
3708367.555,107,756
3708367.574,29,817
3708367.574,5,837
3708367.574,2,838
3708367.574,19,822
3708367.578,98,759
3708367.578,125,742
3708367.591,127,742
3708367.591,109,756
3708367.594,29,819
3708367.594,4,837
3708367.602,1,837
3708367.602,18,822
3708367.611,97,758
3708367.611,124,743
3708367.617,125,741
3708367.617,108,757
3708367.626,29,821
3708367.626,3,837
3708367.635,1,837
3708367.635,16,822
3708367.644,95,758
3708367.644,120,741
3708367.65,123,741
3708367.65,106,757
3708367.661,28,820
3708367.661,3,837
3708367.668,1,839
3708367.668,18,825
3708367.673,97,760
3708367.673,121,742
3708367.682,123,742
3708367.682,107,758
3708367.69,27,823
3708367.69,2,837
3708367.716,0,838
3708367.716,18,825
3708367.716,95,760
3708367.716,121,742
3708367.731,123,741
3708367.731,105,756
3708367.732,26,821
3708367.732,0,838
3708367.733,2,837
3708367.733,18,822
3708367.75,96,759
3708367.75,122,740
3708367.75,125,741
3708367.75,107,754
3708367.755,29,819
3708367.755,1,837
3708367.766,0,838
3708367.766,17,822
3708367.77,96,759
3708367.77,123,741
3708367.779,123,740
3708367.779,104,756
3708367.788,26,820
3708367.788,1,838
3708367.794,-1,837
3708367.794,16,823
3708367.803,97,759
3708367.803,121,743
3708367.811,124,742
3708367.811,105,757
3708367.82,26,821
3708367.82,0,838
3708367.827,-1,838
3708367.827,18,823
3708367.836,96,758
3708367.836,122,742
3708367.855,124,741
3708367.855,105,756
3708367.855,26,820
3708367.855,0,837
3708367.857,-2,838
3708367.857,18,822
3708367.867,97,756
3708367.867,122,740
3708367.876,123,740
3708367.876,107,756
3708367.888,26,820
3708367.888,0,837
3708367.891,-1,837
3708367.891,18,821
3708367.899,97,756
3708367.899,122,740
3708367.907,123,741
3708367.907,106,755
3708367.914,27,819
3708367.914,2,837
3708367.925,-1,837
3708367.925,19,823
3708367.931,98,759
3708367.931,121,741
3708367.94,123,741
3708367.94,105,756
3708367.946,28,819
3708367.946,1,835
3708367.974,1,836
3708367.974,18,821
3708367.977,96,757
3708367.977,122,741
3708367.978,122,741
3708367.978,105,756
3708367.979,26,818
3708367.979,0,835
3708367.987,-2,837
3708367.987,18,821
3708367.996,95,757
3708367.996,120,740
3708368.017,122,741
3708368.017,104,755
3708368.031,26,818
3708368.031,-1,835
3708368.032,0,836
3708368.032,17,821
3708368.033,96,758
3708368.033,122,740
3708368.036,123,739
3708368.036,103,755
3708368.044,23,819
3708368.044,1,836
3708368.05,-3,836
3708368.05,14,821
3708368.059,95,758
3708368.059,119,740
3708368.067,120,739
3708368.067,104,753
3708368.074,26,817
3708368.074,1,836
3708368.085,-2,837
3708368.085,16,821
3708368.092,95,758
3708368.092,119,740
3708368.1,123,738
3708368.1,105,754
3708368.107,26,819
3708368.107,-1,838
3708368.115,-2,838
3708368.115,16,822
3708368.134,96,758
3708368.134,120,743
3708368.134,121,743
3708368.134,104,758
3708368.137,25,823
3708368.137,2,839
3708368.146,-1,839
3708368.146,16,824
3708368.16,94,761
3708368.16,120,743
3708368.163,121,742
3708368.163,103,758
3708368.172,24,821
3708368.172,0,839
3708368.179,-1,839
3708368.179,16,824
3708368.187,95,761
3708368.187,120,742
3708368.194,121,743
3708368.194,104,759
3708368.203,26,822
3708368.203,1,839
3708368.211,-1,839
3708368.211,16,825
3708368.218,95,760
3708368.218,120,742
3708368.227,121,742
3708368.227,106,757
3708368.235,26,822
3708368.235,-2,839
3708368.243,0,840
3708368.243,18,824
3708368.249,95,761
3708368.249,120,744
3708368.258,120,744
3708368.258,105,759
3708368.277,26,822
3708368.277,0,838
3708368.277,0,839
3708368.277,16,824
3708368.283,95,762
3708368.283,119,744
3708368.291,120,744
3708368.291,104,759
3708368.317,24,822
3708368.317,-1,838
3708368.33,-2,837
3708368.33,18,822
3708368.331,97,760
3708368.331,119,742
3708368.333,121,743
3708368.333,105,758
3708368.336,26,822
3708368.336,1,839
3708368.338,-2,840
3708368.338,14,825
3708368.35,93,762
3708368.35,119,744
3708368.355,120,745
3708368.355,102,761
3708368.364,23,825
3708368.364,-3,842
3708368.369,-3,843
3708368.369,14,826
3708368.378,92,761
3708368.378,116,744
3708368.387,116,745
3708368.387,102,760
3708368.393,23,823
3708368.393,-2,841
3708368.403,-3,840
3708368.403,13,825
3708368.422,94,764
3708368.422,118,746
3708368.422,120,744
3708368.422,104,759
3708368.427,23,823
3708368.427,-3,842
3708368.433,-3,842
3708368.433,12,825
3708368.442,91,760
3708368.442,116,744
3708368.451,117,745
3708368.451,100,760
3708368.457,22,823
3708368.457,-6,841
3708368.466,-4,840
3708368.466,13,824
3708368.474,92,761
3708368.474,118,743
3708368.484,116,745
3708368.484,98,759
3708368.49,23,822
3708368.49,-3,840
3708368.499,-4,841
3708368.499,12,824
3708368.51,92,760
3708368.51,118,744
3708368.514,118,745
3708368.514,101,760
3708368.523,22,823
3708368.523,-4,839
3708368.531,-6,840
3708368.531,12,825
3708368.54,91,762
3708368.54,116,744
3708368.546,118,743
3708368.546,99,759
3708368.555,24,822
3708368.555,-2,840
3708368.574,-3,840
3708368.574,13,825
3708368.574,92,761
3708368.574,116,745
3708368.576,117,745
3708368.576,100,761
3708368.586,22,825
3708368.586,-2,841
3708368.617,-5,841
3708368.617,12,826
3708368.631,91,761
3708368.631,118,744
3708368.632,120,743
3708368.632,102,758
3708368.633,22,822
3708368.633,-5,839
3708368.636,-4,838
3708368.636,15,825
3708368.638,93,760
3708368.638,117,743
3708368.643,118,743
3708368.643,101,757
3708368.652,24,822
3708368.652,-3,839
3708368.661,-4,839
3708368.661,14,824
3708368.666,93,760
3708368.666,119,742
3708368.675,119,742
3708368.675,102,757
3708368.683,22,821
3708368.683,-3,839
3708368.69,-5,840
3708368.69,13,824
3708368.699,94,760
3708368.699,118,742
3708368.718,118,741
3708368.718,101,757
3708368.718,22,820
3708368.718,-3,837
3708368.724,-3,837
3708368.724,15,823
3708368.733,94,760
3708368.733,118,743
3708368.739,120,742
3708368.739,105,755
3708368.747,25,820
3708368.747,-1,838
3708368.753,-5,838
3708368.753,13,823
3708368.762,91,759
3708368.762,118,740
3708368.771,119,739
3708368.771,101,755
3708368.778,24,820
3708368.778,-2,838
3708368.786,-4,838
3708368.786,13,823
3708368.795,90,759
3708368.795,117,741
3708368.804,117,742
3708368.804,101,757
3708368.81,23,821
3708368.81,-2,838
3708368.819,-3,836
3708368.819,12,823
3708368.838,91,760
3708368.838,117,744
3708368.838,117,744
3708368.838,100,758
3708368.844,21,821
3708368.844,-5,839
3708368.855,-5,839
3708368.855,13,824
3708368.858,91,762
3708368.858,115,744
3708368.87,116,742
3708368.87,101,758
3708368.874,21,821
3708368.874,-6,838
3708368.882,-4,838
3708368.882,13,823
3708368.891,92,761
3708368.891,118,743
3708368.916,116,742
3708368.916,102,758
3708368.93,24,821
3708368.93,-3,837
3708368.931,-3,836
3708368.931,16,823
3708368.934,92,760
3708368.934,117,742
3708368.935,117,742
3708368.935,100,756
3708368.941,21,821
3708368.941,-5,838
3708368.948,-5,838
3708368.948,11,822
3708368.956,90,759
3708368.956,114,742
3708368.965,115,742
3708368.965,100,757
3708368.97,23,820
3708368.97,-4,837
3708368.978,-5,838
3708368.978,12,824
3708368.998,92,760
3708368.998,116,741
3708368.998,119,741
3708368.998,102,757
3708369.004,22,820
3708369.004,-3,837
3708369.013,-4,836
3708369.013,13,822
3708369.018,89,759
3708369.018,116,740
3708369.031,118,740
3708369.031,100,756
3708369.034,21,821
3708369.034,-6,837
3708369.042,-9,837
3708369.042,11,823
3708369.051,93,758
3708369.051,117,742
3708369.057,118,741
3708369.057,99,756
3708369.066,23,820
3708369.066,-2,838
3708369.076,-5,839
3708369.076,12,824
3708369.083,92,760
3708369.083,117,743
3708369.09,117,745
3708369.09,99,761
3708369.101,17,825
3708369.101,-5,841
3708369.107,-6,841
3708369.107,11,825
3708369.116,91,764
3708369.116,114,746
3708369.122,116,744
3708369.122,98,759
3708369.141,20,823
3708369.141,-8,840
3708369.141,-6,839
3708369.141,11,823
3708369.146,89,760
3708369.146,115,744
3708369.153,115,742
3708369.153,99,757
3708369.163,21,822
3708369.163,-5,840
3708369.172,-5,839
3708369.172,12,825
3708369.177,89,762
3708369.177,115,744
3708369.186,116,743
3708369.186,97,757
3708369.194,19,821
3708369.194,-6,839
3708369.22,-8,839
3708369.22,11,825
3708369.231,91,761
3708369.231,115,743
3708369.232,115,742
3708369.232,98,759
3708369.255,18,822
3708369.255,-5,839
3708369.256,-7,840
3708369.256,10,826
3708369.261,89,761
3708369.261,115,743
3708369.264,116,743
3708369.264,98,757
3708369.265,20,820
3708369.265,-5,838
3708369.266,-7,839
3708369.266,10,823
3708369.276,90,759
3708369.276,117,742
3708369.282,116,741
3708369.282,98,756
3708369.296,20,820
3708369.296,-8,838
3708369.303,-8,838
3708369.303,10,823
3708369.306,88,758
3708369.306,114,739
3708369.315,116,741
3708369.315,99,757
3708369.324,20,821
3708369.324,-5,837
3708369.329,-6,836
3708369.329,11,822
3708369.338,89,757
3708369.338,114,741
3708369.349,116,741
3708369.349,100,756
3708369.353,19,819
3708369.353,-4,836
3708369.364,-6,838
3708369.364,9,822
3708369.372,87,758
3708369.372,116,741
3708369.381,116,740
3708369.381,98,757
3708369.386,21,819
3708369.386,-4,837
3708369.395,-5,838
3708369.395,11,823
3708369.414,89,757
3708369.414,115,741
3708369.414,117,741
3708369.414,100,756
3708369.417,20,818
3708369.417,-5,836
3708369.426,-6,836
3708369.426,11,821
3708369.437,89,758
3708369.437,114,738
3708369.444,114,738
3708369.444,99,755
3708369.453,21,818
3708369.453,-5,836
3708369.459,-7,837
3708369.459,11,822
3708369.468,90,758
3708369.468,115,740
3708369.474,114,739
3708369.474,98,753
3708369.483,18,817
3708369.483,-5,837
3708369.491,-6,837
3708369.491,11,821
3708369.516,89,757
3708369.516,114,741
3708369.53,119,740
3708369.53,99,755
3708369.531,20,817
3708369.531,-6,835
3708369.532,-7,836
3708369.532,11,821
3708369.536,88,757
3708369.536,114,739
3708369.539,116,740
3708369.539,98,754
3708369.553,19,818
3708369.553,-6,836
3708369.555,-8,835
3708369.555,9,820
3708369.562,89,758
3708369.562,116,740
3708369.571,119,740
3708369.571,100,756
3708369.59,19,820
3708369.59,-7,838
3708369.59,-9,838
3708369.59,8,826
3708369.593,89,764
3708369.593,115,748
3708369.605,115,747
3708369.605,98,762
3708369.612,19,826
3708369.612,-6,843
3708369.618,-6,844
3708369.618,9,827
3708369.627,85,764
3708369.627,111,746
3708369.636,112,746
3708369.636,95,761
3708369.644,18,825
3708369.644,-7,841
3708369.65,-9,841
3708369.65,8,827
3708369.66,86,763
3708369.66,111,745
3708369.668,114,744
3708369.668,96,759
3708369.675,16,822
3708369.675,-8,840
3708369.685,-8,841
3708369.685,9,825
3708369.691,87,762
3708369.691,112,745
3708369.7,113,744
3708369.7,94,758
3708369.706,17,822
3708369.706,-9,840
3708369.715,-10,840
3708369.715,6,824
3708369.734,85,762
3708369.734,110,745
3708369.734,113,744
3708369.734,94,758
3708369.736,17,822
3708369.736,-8,840
3708369.746,-8,839
3708369.746,8,825
3708369.755,84,760
3708369.755,112,744
3708369.764,112,743
3708369.764,96,758
3708369.77,18,821
3708369.77,-8,839
3708369.778,-10,839
3708369.778,8,824
3708369.787,87,760
3708369.787,111,743
3708369.793,112,744
3708369.793,98,758
3708369.817,17,820
3708369.817,-9,839
3708369.831,-8,839
3708369.831,9,823
3708369.832,85,760
3708369.832,112,743
3708369.833,110,742
3708369.833,94,758
3708369.836,16,821
3708369.836,-11,838
3708369.854,-11,839
3708369.854,6,824
3708369.854,85,760
3708369.854,110,743
3708369.857,112,743
3708369.857,95,759
3708369.87,16,823
3708369.87,-10,840
3708369.872,-10,841
3708369.872,6,827
3708369.882,84,764
3708369.882,111,748
3708369.891,112,748
3708369.891,94,763
3708369.898,16,827
3708369.898,-9,844
3708369.907,-10,845
3708369.907,6,830
3708369.915,85,766
3708369.915,112,748
3708369.924,114,747
3708369.924,95,762
3708369.93,17,825
3708369.93,-9,842
3708369.942,-12,843
3708369.942,6,828
3708369.947,85,764
3708369.947,111,746
3708369.953,112,745
3708369.953,94,763
3708369.962,16,826
3708369.962,-11,843
3708369.981,-9,844
3708369.981,8,828
3708369.981,84,765
3708369.981,110,746
3708369.988,114,745
3708369.988,97,761
3708369.994,15,825
3708369.994,-11,843
3708370.013,-12,842
3708370.013,7,828
3708370.013,84,766
3708370.013,111,746
3708370.019,112,745
3708370.019,94,761
3708370.028,15,825
3708370.028,-10,841
3708370.034,-11,842
3708370.034,5,828
3708370.043,83,765
3708370.043,110,747
3708370.052,112,747
3708370.052,94,763
3708370.061,15,826
3708370.061,-11,842
3708370.066,-11,842
3708370.066,6,826
3708370.074,85,765
3708370.074,110,747
3708370.083,113,747
3708370.083,95,761
3708370.089,16,825
3708370.089,-9,843
3708370.116,-12,842
3708370.116,6,827
3708370.131,85,765
3708370.131,109,747
3708370.131,109,746
3708370.131,94,761
3708370.132,14,824
3708370.132,-12,842
3708370.135,-13,843
3708370.135,4,828
3708370.139,86,764
3708370.139,111,747
3708370.153,109,747
3708370.153,93,761
3708370.159,15,824
3708370.159,-11,841
3708370.161,-13,841
3708370.161,4,827
3708370.17,83,763
3708370.17,110,746
3708370.178,109,746
3708370.178,94,761
3708370.187,13,824
3708370.187,-11,842
3708370.198,-12,841
3708370.198,6,827
3708370.204,85,763
3708370.204,110,746
3708370.211,109,745
3708370.211,93,760
3708370.218,13,823
3708370.218,-14,842
3708370.227,-15,841
3708370.227,6,828
3708370.233,83,763
3708370.233,107,746
3708370.242,109,746
3708370.242,93,759
3708370.256,14,824
3708370.256,-10,842
3708370.26,-13,842
3708370.26,3,827
3708370.266,85,763
3708370.266,111,746
3708370.276,109,745
3708370.276,91,760
3708370.294,13,824
3708370.294,-12,842
3708370.294,-13,842
3708370.294,4,827
3708370.298,83,765
3708370.298,107,748
3708370.306,108,746
3708370.306,92,761
3708370.32,12,827
3708370.32,-13,845
3708370.323,-17,845
3708370.323,3,832
3708370.329,81,768
3708370.329,107,750
3708370.343,110,749
3708370.343,93,763
3708370.346,13,826
3708370.346,-10,844
3708370.362,-12,845
3708370.362,4,829
3708370.363,83,766
3708370.363,108,749
3708370.374,112,750
3708370.374,92,764
3708370.378,13,827
3708370.378,-10,844
3708370.386,-10,844
3708370.386,5,831
3708370.395,83,767
3708370.395,108,749
3708370.416,108,749
3708370.416,93,763
3708370.43,15,828
3708370.43,-10,846
3708370.432,-13,845
3708370.432,6,829
3708370.434,84,766
3708370.434,108,749
3708370.436,109,748
3708370.436,92,764
3708370.446,13,827
3708370.446,-12,844
3708370.45,-13,845
3708370.45,5,830
3708370.459,83,767
3708370.459,109,750
3708370.468,110,750
3708370.468,92,764
3708370.474,13,827
3708370.474,-13,846
3708370.482,-14,845
3708370.482,5,829
3708370.491,83,766
3708370.491,107,749
3708370.5,108,747
3708370.5,92,763
3708370.507,13,827
3708370.507,-12,844
3708370.534,-13,844
3708370.534,5,829
3708370.537,83,765
3708370.537,108,747
3708370.538,109,748
3708370.538,92,764
3708370.539,13,827
3708370.539,-13,844
3708370.546,-13,844
3708370.546,4,830
3708370.555,83,766
3708370.555,108,748
3708370.574,109,748
3708370.574,92,763
3708370.574,13,826
3708370.574,-11,843
3708370.58,-12,846
3708370.58,4,831
3708370.586,83,767
3708370.586,108,749
3708370.595,110,748
3708370.595,94,763
3708370.604,14,826
3708370.604,-12,844
3708370.61,-14,844
3708370.61,5,829
3708370.619,85,766
3708370.619,109,748
3708370.628,108,748
3708370.628,92,763
3708370.634,14,827
3708370.634,-11,843
3708370.643,-12,843
3708370.643,6,829
3708370.652,83,765
3708370.652,106,748
3708370.661,109,748
3708370.661,94,763
3708370.667,14,826
3708370.667,-13,843
3708370.675,-14,844
3708370.675,3,828
3708370.693,84,765
3708370.693,112,747
3708370.693,113,747
3708370.693,88,762
3708370.716,10,826
3708370.716,-14,843
3708370.731,-15,844
3708370.731,2,829
3708370.732,82,765
3708370.732,107,749
3708370.735,107,747
3708370.735,90,762
3708370.736,9,826
3708370.736,-14,844
3708370.742,-15,844
3708370.742,0,829
3708370.749,82,765
3708370.749,108,749
3708370.755,109,748
3708370.755,91,764
3708370.763,13,828
3708370.763,-12,845
3708370.77,-13,844
3708370.77,4,829
3708370.78,83,766
3708370.78,108,749
3708370.787,109,747
3708370.787,92,764
3708370.795,12,827
3708370.795,-15,846
3708370.809,-14,846
3708370.809,4,830
3708370.812,82,768
3708370.812,109,749
3708370.819,108,749
3708370.819,91,763
3708370.838,12,827
3708370.838,-13,844
3708370.838,-15,844
3708370.838,4,830
3708370.845,82,767
3708370.845,108,750
3708370.852,108,749
3708370.852,91,763
3708370.86,13,827
3708370.86,-12,844
3708370.87,-13,844
3708370.87,4,831
3708370.874,84,766
3708370.874,108,749
3708370.883,109,749
3708370.883,93,764
3708370.892,12,828
3708370.892,-14,845
3708370.898,-13,845
3708370.898,6,831
3708370.907,84,768
3708370.907,107,750
3708370.916,110,749
3708370.916,91,764
3708370.924,14,826
3708370.924,-13,845
3708370.931,-13,846
3708370.931,4,829
3708370.94,83,766
3708370.94,108,749
3708370.951,110,749
3708370.951,93,764
3708370.953,14,829
3708370.953,-11,846
3708370.962,-14,845
3708370.962,4,830
3708370.983,82,765
3708370.983,108,749
3708370.983,109,750
3708370.983,93,764
3708370.988,13,828
3708370.988,-13,846
3708370.994,-11,846
3708370.994,4,830
3708371.017,80,766
3708371.017,106,749
3708371.03,108,749
3708371.03,89,763
3708371.032,9,827
3708371.032,-14,845
3708371.034,-12,847
3708371.034,2,831
3708371.037,82,767
3708371.037,108,750
3708371.043,109,749
3708371.043,92,764
3708371.052,14,827
3708371.052,-12,845
3708371.059,-13,845
3708371.059,3,831
3708371.066,81,766
3708371.066,107,748
3708371.074,108,749
3708371.074,90,765
3708371.084,12,827
3708371.084,-13,845
3708371.091,-15,844
3708371.091,1,830
3708371.099,80,766
3708371.099,108,748
3708371.113,110,749
3708371.113,92,763
3708371.116,13,826
3708371.116,-10,845
3708371.131,-14,846
3708371.131,2,832
3708371.131,82,769
3708371.131,107,752
3708371.15,107,752
3708371.15,90,767
3708371.15,12,832
3708371.15,-12,851
3708371.153,-15,852
3708371.153,1,838
3708371.162,82,774
3708371.162,108,757
3708371.171,108,756
3708371.171,90,771
3708371.178,11,835
3708371.178,-13,851
3708371.186,-14,851
3708371.186,3,836
3708371.195,82,772
3708371.195,108,754
3708371.204,109,754
3708371.204,92,769
3708371.216,14,834
3708371.216,-10,851
3708371.218,-13,850
3708371.218,4,834
3708371.23,82,772
3708371.23,108,755
3708371.233,110,754
3708371.233,89,770
3708371.242,13,833
3708371.242,-13,850
3708371.261,-13,850
3708371.261,3,836
3708371.261,82,773
3708371.261,107,755
3708371.268,109,755
3708371.268,93,770
3708371.275,15,833
3708371.275,-12,851
3708371.282,-12,852
3708371.282,4,837
3708371.291,82,775
3708371.291,109,756
3708371.316,109,756
3708371.316,91,771
3708371.33,14,835
3708371.33,-11,851
3708371.332,-14,851
3708371.332,4,836
3708371.333,82,774
3708371.333,107,755
3708371.335,109,755
3708371.335,90,770
3708371.339,12,833
3708371.339,-13,850
3708371.353,-16,851
3708371.353,3,837
3708371.353,82,772
3708371.353,106,755
3708371.362,109,754
3708371.362,95,769
3708371.381,14,832
3708371.381,-12,850
3708371.381,-11,849
3708371.381,3,833
3708371.387,82,771
3708371.387,108,754
3708371.395,110,754
3708371.395,92,769
3708371.403,12,832
3708371.403,-12,850
3708371.411,-14,851
3708371.411,4,836
3708371.431,84,772
3708371.431,109,753
3708371.431,107,752
3708371.431,90,769
3708371.434,13,832
3708371.434,-13,849
3708371.443,-15,849
3708371.443,4,835
3708371.451,83,771
3708371.451,108,754
3708371.46,110,753
3708371.46,94,768
3708371.467,14,832
3708371.467,-11,850
3708371.479,-11,850
3708371.479,6,835
3708371.484,84,772
3708371.484,108,753
3708371.49,112,752
3708371.49,93,767
3708371.499,15,832
3708371.499,-11,850
3708371.508,-13,850
3708371.508,5,834
3708371.514,85,770
3708371.514,108,753
3708371.523,108,753
3708371.523,89,768
3708371.541,13,831
3708371.541,-11,849
3708371.541,-15,848
3708371.541,2,833
3708371.547,82,771
3708371.547,108,754
3708371.553,108,753
3708371.553,91,768
3708371.565,13,831
3708371.565,-11,849
3708371.571,-12,849
3708371.571,5,834
3708371.577,80,770
3708371.577,106,752
3708371.586,110,752
3708371.586,93,769
3708371.595,11,832
3708371.595,-16,850
3708371.616,-16,850
3708371.616,1,833
3708371.63,81,770
3708371.63,104,753
3708371.631,105,753
3708371.631,90,767
3708371.633,11,831
3708371.633,-14,849
3708371.636,-16,851
3708371.636,1,835
3708371.646,81,769
3708371.646,106,753
3708371.65,108,753
3708371.65,90,767
3708371.659,10,829
3708371.659,-14,848
3708371.678,-15,848
3708371.678,2,834
3708371.678,81,769
3708371.678,107,751
3708371.684,106,751
3708371.684,90,766
3708371.69,12,831
3708371.69,-14,849
3708371.699,-16,849
3708371.699,0,834
3708371.707,79,770
3708371.707,105,754
3708371.713,106,754
3708371.713,91,768
3708371.722,11,832
3708371.722,-17,849
3708371.734,-14,849
3708371.734,4,835
3708371.738,81,772
3708371.738,105,754
3708371.747,107,752
3708371.747,90,767
3708371.756,11,831
3708371.756,-13,849
3708371.765,-14,849
3708371.765,3,833
3708371.77,79,771
3708371.77,104,754
3708371.78,107,753
3708371.78,90,767
3708371.787,13,830
3708371.787,-14,848
3708371.815,-16,849
3708371.815,2,832
3708371.818,79,769
3708371.818,105,752
3708371.819,107,752
3708371.819,88,767
3708371.82,9,831
3708371.82,-15,849
3708371.828,-16,849
3708371.828,1,835
3708371.834,80,770
3708371.834,106,753
3708371.843,106,753
3708371.843,87,767
3708371.852,10,831
3708371.852,-15,849
3708371.858,-16,849
3708371.858,1,834
3708371.867,77,771
3708371.867,103,752
3708371.876,105,753
3708371.876,89,769
3708371.884,10,832
3708371.884,-15,851
3708371.891,-17,850
3708371.891,2,837
3708371.917,79,776
3708371.917,105,762
3708371.931,108,763
3708371.931,88,779
3708371.932,11,844
3708371.932,-13,862
3708371.932,-16,864
3708371.932,-1,850
3708371.935,80,785
3708371.935,108,768
3708371.941,106,767
3708371.941,88,783
3708371.948,8,845
3708371.948,-16,861
3708371.956,-16,861
3708371.956,0,847
3708371.963,76,783
3708371.963,102,765
3708371.971,106,764
3708371.971,90,779
3708371.99,9,841
3708371.99,-16,860
3708371.99,-17,863
3708371.99,1,849
3708371.993,80,784
3708371.993,103,767
3708372.002,104,767
3708372.002,88,782
3708372.012,12,844
3708372.012,-14,861
3708372.018,-17,862
3708372.018,0,847
3708372.027,80,782
3708372.027,105,764
3708372.035,105,764
3708372.035,88,778
3708372.044,9,842
3708372.044,-15,861
3708372.049,-16,860
3708372.049,1,844
3708372.061,79,782
3708372.061,104,764
3708372.067,105,764
3708372.067,89,779
3708372.073,10,841
3708372.073,-17,859
3708372.082,-16,859
3708372.082,2,844
3708372.102,79,780
3708372.102,105,763
3708372.102,106,764
3708372.102,90,779
3708372.107,12,842
3708372.107,-16,858
3708372.114,-14,859
3708372.114,1,845
3708372.122,77,781
3708372.122,102,764
3708372.131,105,764
3708372.131,88,779
3708372.138,7,841
3708372.138,-18,859
3708372.149,-18,860
3708372.149,-3,845
3708372.155,78,781
3708372.155,105,763
3708372.164,105,762
3708372.164,89,778
3708372.17,11,843
3708372.17,-16,860
3708372.179,-16,861
3708372.179,2,845
3708372.187,78,780
3708372.187,105,764
3708372.193,107,763
3708372.193,89,777
3708372.216,10,842
3708372.216,-17,859
3708372.23,-17,860
3708372.23,0,845
3708372.232,78,781
3708372.232,103,764
3708372.232,106,764
3708372.232,88,779
3708372.236,9,841
3708372.236,-16,859
3708372.242,-17,860
3708372.242,2,845
3708372.261,80,781
3708372.261,104,763
3708372.261,106,763
3708372.261,89,777
3708372.268,10,842
3708372.268,-16,860
3708372.274,-15,860
3708372.274,0,845
3708372.283,78,781
3708372.283,103,764
3708372.293,106,763
3708372.293,90,778
3708372.299,9,841
3708372.299,-17,860
3708372.307,-16,860
3708372.307,-1,844
3708372.316,78,782
3708372.316,103,764
3708372.326,105,762
3708372.326,89,777
3708372.33,8,842
3708372.33,-17,860
3708372.338,-15,861
3708372.338,2,845
3708372.347,79,781
3708372.347,102,764
3708372.355,103,765
3708372.355,84,780
3708372.362,5,843
3708372.362,-20,861
3708372.381,-20,860
3708372.381,-3,845
3708372.381,76,782
3708372.381,101,763
3708372.388,103,764
3708372.388,87,780
3708372.394,7,843
3708372.394,-18,861
3708372.403,-19,861
3708372.403,-3,846
3708372.41,76,780
3708372.41,100,765
3708372.417,101,764
3708372.417,84,780
3708372.425,6,843
3708372.425,-18,861
3708372.435,-19,860
3708372.435,-2,844
3708372.444,77,780
3708372.444,100,764
3708372.451,104,764
3708372.451,86,779
3708372.459,7,841
3708372.459,-17,858
3708372.467,-18,860
3708372.467,-2,845
3708372.473,76,781
3708372.473,103,763
3708372.487,104,763
3708372.487,88,779
3708372.49,8,842
3708372.49,-17,858
3708372.517,-19,860
3708372.517,-2,845
3708372.531,76,781
3708372.531,104,763
3708372.532,106,764
3708372.532,86,780
3708372.532,7,843
3708372.532,-16,860
3708372.535,-17,861
3708372.535,-2,845
3708372.541,76,782
3708372.541,101,765
3708372.547,103,764
3708372.547,88,778
3708372.554,6,842
3708372.554,-18,860
3708372.563,-21,860
3708372.563,-1,846
3708372.573,76,781
3708372.573,99,763
3708372.578,101,764
3708372.578,85,779
3708372.586,8,843
3708372.586,-18,860
3708372.595,-21,859
3708372.595,-3,844
3708372.604,77,780
3708372.604,100,764
3708372.61,102,764
3708372.61,87,778
3708372.619,9,842
3708372.619,-16,859
3708372.627,-18,859
3708372.627,-3,844
3708372.633,77,780
3708372.633,102,764
3708372.642,102,763
3708372.642,85,778
3708372.653,7,841
3708372.653,-18,859
3708372.658,-19,859
3708372.658,-3,844
3708372.667,75,780
3708372.667,100,764
3708372.676,101,763
3708372.676,88,778
3708372.694,8,842
3708372.694,-18,859
3708372.694,-19,859
3708372.694,-3,846
3708372.697,76,782
3708372.697,100,765
3708372.706,102,765
3708372.706,83,780
3708372.715,6,843
3708372.715,-18,861
3708372.723,-20,861
3708372.723,-3,846
3708372.73,76,781
3708372.73,102,764
3708372.741,101,763
3708372.741,84,778
3708372.748,6,842
3708372.748,-19,859
3708372.754,-20,860
3708372.754,-3,844
3708372.763,77,780
3708372.763,102,765
3708372.772,103,767
3708372.772,85,781
3708372.78,7,842
3708372.78,-19,862
3708372.786,-20,865
3708372.786,-2,852
3708372.794,77,789
3708372.794,101,772
3708372.817,100,771
3708372.817,86,786
3708372.831,7,852
3708372.831,-18,868
3708372.832,-19,867
3708372.832,-1,853
3708372.833,76,788
3708372.833,101,768
3708372.835,103,767
3708372.835,86,782
3708372.843,7,846
3708372.843,-17,863
3708372.851,-18,862
3708372.851,-3,846
3708372.857,77,782
3708372.857,101,764
3708372.866,101,764
3708372.866,86,779
3708372.875,5,842
3708372.875,-21,860
3708372.884,-20,859
3708372.884,-1,843
3708372.89,76,780
3708372.89,100,762
3708372.898,99,761
3708372.898,83,776
3708372.908,6,840
3708372.908,-18,857
3708372.914,-20,857
3708372.914,-5,842
3708372.921,75,779
3708372.921,100,761
3708372.932,101,760
3708372.932,85,775
3708372.949,6,839
3708372.949,-19,856
3708372.949,-21,857
3708372.949,-4,843
3708372.954,76,780
3708372.954,100,762
3708372.963,100,761
3708372.963,84,777
3708372.972,6,840
3708372.972,-19,857
3708372.978,-21,858
3708372.978,-2,844
3708372.987,75,780
3708372.987,100,762
3708372.996,102,762
3708372.996,84,776
3708373.003,8,840
3708373.003,-17,858
3708373.01,-21,858
3708373.01,-2,844
3708373.019,76,781
3708373.019,99,763
3708373.027,99,762
3708373.027,83,778
3708373.034,5,841
3708373.034,-22,858
3708373.042,-23,859
3708373.042,-6,843
3708373.051,73,779
3708373.051,96,762
3708373.06,100,763
3708373.06,83,777
3708373.065,4,841
3708373.065,-19,858
3708373.095,-23,858
3708373.095,-7,843
3708373.095,73,781
3708373.095,100,762
3708373.117,101,760
3708373.117,82,777
3708373.131,3,841
3708373.131,-22,859
3708373.132,-23,859
3708373.132,-5,844
3708373.133,73,780
3708373.133,99,761
3708373.136,100,761
3708373.136,83,777
3708373.141,5,842
3708373.141,-20,859
3708373.144,-20,858
3708373.144,-4,843
3708373.146,76,779
3708373.146,101,763
3708373.157,101,764
3708373.157,85,778
3708373.164,6,840
3708373.164,-20,858
3708373.169,-21,858
3708373.169,-4,843
3708373.179,76,780
3708373.179,102,762
3708373.188,101,762
3708373.188,83,777
3708373.194,6,840
3708373.194,-18,857
3708373.203,-18,858
3708373.203,-2,842
3708373.222,73,779
3708373.222,99,763
3708373.222,101,762
3708373.222,83,777
3708373.228,5,840
3708373.228,-22,856
3708373.237,-24,857
3708373.237,-5,843
3708373.242,76,779
3708373.242,99,762
3708373.254,100,762
3708373.254,85,776
3708373.258,3,839
3708373.258,-22,857
3708373.267,-23,857
3708373.267,-5,843
3708373.276,75,780
3708373.276,100,761
3708373.285,101,761
3708373.285,82,777
3708373.29,5,840
3708373.29,-21,856
3708373.298,-20,858
3708373.298,-5,842
3708373.307,73,780
3708373.307,100,763
3708373.314,101,762
3708373.314,84,777
3708373.325,4,840
3708373.325,-21,858
3708373.331,-20,858
3708373.331,-4,843
3708373.34,73,779
3708373.34,100,761
3708373.346,101,763
3708373.346,84,777
3708373.355,4,841
3708373.355,-21,859
3708373.374,-21,858
3708373.374,-3,844
3708373.374,75,780
3708373.374,100,762
3708373.378,101,760
3708373.378,85,775
3708373.387,4,842
3708373.387,-21,859
3708373.394,-20,859
3708373.394,-2,844
3708373.416,73,782
3708373.416,100,765
3708373.431,100,764
3708373.431,83,779
3708373.437,4,842
3708373.437,-21,859
3708373.437,-22,859
3708373.437,-5,843
3708373.437,73,780
3708373.437,100,763
3708373.443,99,763
3708373.443,83,777
3708373.451,5,841
3708373.451,-20,859
3708373.46,-23,859
3708373.46,-5,843
3708373.466,75,779
3708373.466,103,763
3708373.475,102,762
3708373.475,83,778
3708373.484,5,841
3708373.484,-22,859
3708373.489,-20,857
3708373.489,-2,843
3708373.501,77,781
3708373.501,101,763
3708373.508,100,762
3708373.508,81,778
3708373.516,4,842
3708373.516,-22,858
3708373.523,-22,859
3708373.523,-5,843
3708373.541,73,780
3708373.541,98,763
3708373.541,101,763
3708373.541,84,778
3708373.548,4,842
3708373.548,-20,858
3708373.553,-20,859
3708373.553,-5,844
3708373.563,74,779
3708373.563,99,762
3708373.573,99,763
3708373.573,83,778
3708373.579,6,843
3708373.579,-20,858
3708373.591,-23,858
3708373.591,-5,845
3708373.597,75,781
3708373.597,100,764
3708373.604,102,763
3708373.604,85,779
3708373.612,5,843
3708373.612,-20,858
3708373.619,-21,858
3708373.619,-3,842
3708373.626,75,779
3708373.626,101,762
3708373.642,101,761
3708373.642,84,776
3708373.642,7,840
3708373.642,-20,858
3708373.661,-20,859
3708373.661,-2,843
3708373.661,75,779
3708373.661,98,762
3708373.668,102,760
3708373.668,82,776
3708373.674,5,839
3708373.674,-20,856
3708373.685,-21,858
3708373.685,-2,842
3708373.692,75,777
3708373.692,100,759
3708373.715,101,761
3708373.715,84,776
3708373.73,5,839
3708373.73,-20,856
3708373.732,-20,857
3708373.732,-4,843
3708373.733,74,779
3708373.733,98,761
3708373.735,101,760
3708373.735,83,775
3708373.739,5,839
3708373.739,-20,857
3708373.747,-21,856
3708373.747,-8,841
3708373.753,72,777
3708373.753,97,760
3708373.764,99,760
3708373.764,83,775
3708373.772,3,838
3708373.772,-22,855
3708373.78,-22,856
3708373.78,-6,840
3708373.787,73,778
3708373.787,97,760
3708373.795,100,759
3708373.795,82,774
3708373.814,2,838
3708373.814,-21,856
3708373.814,-24,856
3708373.814,-7,841
3708373.817,73,777
3708373.817,98,760
3708373.826,100,760
3708373.826,82,774
3708373.834,3,838
3708373.834,-23,856
3708373.844,-24,857
3708373.844,-6,841
3708373.851,73,777
3708373.851,98,760
3708373.859,100,760
3708373.859,82,775
3708373.869,4,839
3708373.869,-22,856
3708373.876,-24,855
3708373.876,-6,840
3708373.883,73,777
3708373.883,98,761
3708373.892,98,760
3708373.892,81,775
3708373.901,5,838
3708373.901,-20,854
3708373.906,-23,855
3708373.906,-4,841
3708373.925,73,778
3708373.925,99,762
3708373.925,102,761
3708373.925,83,774
3708373.931,5,838
3708373.931,-21,857
3708373.942,-23,858
3708373.942,-4,843
3708373.945,75,778
3708373.945,99,762
3708373.965,100,761
3708373.965,84,775
3708373.965,6,840
3708373.965,-21,856
3708373.971,-20,855
3708373.971,-4,841
3708373.978,73,778
3708373.978,100,761
3708373.986,101,761
3708373.986,81,777
3708373.995,3,838
3708373.995,-20,857
3708374.017,-22,859
3708374.017,-5,844
3708374.03,73,780
3708374.03,99,762
3708374.032,100,762
3708374.032,83,777
3708374.034,5,840
3708374.034,-21,858
3708374.036,-24,858
3708374.036,-4,842
3708374.043,74,779
3708374.043,101,763
3708374.062,100,762
3708374.062,85,776
3708374.062,6,840
3708374.062,-21,858
3708374.068,-22,858
3708374.068,-4,842
3708374.076,74,779
3708374.076,99,763
3708374.082,101,762
3708374.082,82,777
3708374.101,5,841
3708374.101,-20,859
3708374.101,-22,859
3708374.101,-5,844
3708374.107,74,780
3708374.107,99,762
3708374.114,100,762
3708374.114,83,777
3708374.125,5,840
3708374.125,-21,857
3708374.131,-24,857
3708374.131,-6,842
3708374.137,75,779
3708374.137,99,761
3708374.146,100,761
3708374.146,82,776
3708374.155,4,840
3708374.155,-21,859
3708374.164,-21,858
3708374.164,-4,842
3708374.17,73,778
3708374.17,99,761
3708374.179,99,761
3708374.179,83,777
3708374.188,6,840
3708374.188,-20,858
3708374.194,-20,857
3708374.194,-4,842
3708374.206,74,779
3708374.206,102,761
3708374.212,100,760
3708374.212,83,777
3708374.231,3,840
3708374.231,-20,857
3708374.231,-20,858
3708374.231,-5,843
3708374.233,73,779
3708374.233,99,762
3708374.243,99,761
3708374.243,84,776
3708374.251,5,841
3708374.251,-21,858
3708374.257,-22,857
3708374.257,-4,842
3708374.266,76,779
3708374.266,101,763
3708374.275,103,764
3708374.275,85,779
3708374.284,6,840
3708374.284,-20,857
3708374.29,-21,860
3708374.29,-3,845
3708374.316,76,780
3708374.316,100,763
3708374.33,99,762
3708374.33,79,776
3708374.332,2,840
3708374.332,-23,858
3708374.333,-22,858
3708374.333,-3,844
3708374.335,71,780
3708374.335,97,763
3708374.339,99,761
3708374.339,80,776
3708374.373,3,841
3708374.373,-22,858
3708374.373,-25,858
3708374.373,-8,843
3708374.374,72,779
3708374.374,99,761
3708374.377,101,761
3708374.377,81,778
3708374.378,3,842
3708374.378,-22,858
3708374.39,-23,858
3708374.39,-7,843
3708374.395,74,782
3708374.395,100,763
3708374.403,99,761
3708374.403,81,776
3708374.41,2,839
3708374.41,-23,858
3708374.419,-22,859
3708374.419,-6,845
3708374.427,73,780
3708374.428,99,763
3708374.434,99,763
3708374.434,82,777
3708374.443,2,841
3708374.443,-23,859
3708374.45,-22,859
3708374.45,-6,843
3708374.463,72,781
3708374.463,96,763
3708374.466,97,762
3708374.466,79,778
3708374.485,-1,842
3708374.485,-24,859
3708374.485,-26,859
3708374.485,-6,845
3708374.492,74,780
3708374.492,99,762
3708374.511,99,763
3708374.511,81,779
3708374.511,3,842
3708374.511,-23,858
3708374.513,-24,858
3708374.513,-4,844
3708374.522,72,781
3708374.522,97,764
3708374.531,98,764
3708374.531,82,779
3708374.537,2,841
3708374.537,-22,860
3708374.547,-23,859
3708374.547,-7,844
3708374.557,72,781
3708374.557,98,763
3708374.564,99,763
3708374.564,83,779
3708374.57,4,842
3708374.57,-24,859
3708374.579,-25,859
3708374.579,-6,844
3708374.588,73,780
3708374.588,95,763
3708374.594,98,762
3708374.594,83,778
3708374.617,5,842
3708374.617,-22,860
3708374.63,-25,859
3708374.63,-6,845
3708374.632,72,780
3708374.632,99,762
3708374.634,100,763
3708374.634,81,779
3708374.637,3,842
3708374.637,-22,860
3708374.642,-25,860
3708374.642,-9,844
3708374.661,73,780
3708374.661,99,763
3708374.661,101,763
3708374.661,84,778
3708374.667,4,842
3708374.667,-21,860
3708374.673,-23,860
3708374.673,-5,844
3708374.683,74,780
3708374.683,99,763
3708374.692,98,763
3708374.692,82,778
3708374.697,3,842
3708374.697,-22,859
3708374.706,-25,859
3708374.706,-7,845
3708374.715,72,781
3708374.715,99,762
3708374.726,101,761
3708374.726,84,776
3708374.73,5,841
3708374.73,-22,858
3708374.739,-23,858
3708374.739,-7,842
3708374.747,72,779
3708374.747,97,761
3708374.753,98,761
3708374.753,82,777
3708374.763,3,841
3708374.763,-22,858
3708374.782,-23,859
3708374.782,-7,845
3708374.782,73,781
3708374.782,98,762
3708374.788,97,762
3708374.788,83,777
3708374.796,5,841
3708374.796,-20,858
3708374.802,-25,859
3708374.802,-6,843
3708374.813,72,779
3708374.813,99,762
3708374.817,103,761
3708374.817,84,777
3708374.826,3,842
3708374.826,-23,858
3708374.835,-23,859
3708374.835,-7,842
3708374.844,72,779
3708374.844,97,762
3708374.85,99,762
3708374.85,82,777
3708374.859,3,841
3708374.859,-22,858
3708374.868,-24,857
3708374.868,-5,842
3708374.874,73,781
3708374.874,97,764
3708374.883,99,762
3708374.883,81,777
3708374.893,3,841
3708374.893,-24,859
3708374.917,-24,858
3708374.917,-8,844
3708374.931,71,781
3708374.931,98,763
3708374.932,99,762
3708374.932,82,777
3708374.934,2,841
3708374.934,-21,859
3708374.937,-22,858
3708374.937,-7,843
3708374.938,71,779
3708374.938,97,763
3708374.951,99,762
3708374.951,83,778
3708374.955,2,841
3708374.955,-23,859
3708374.963,-23,859
3708374.963,-6,843
3708374.975,71,780
3708374.975,98,764
3708374.981,99,764
3708374.981,81,776
3708374.986,3,840
3708374.986,-22,859
3708374.995,-24,857
3708374.995,-7,844
3708375.004,72,780
3708375.004,97,761
3708375.01,99,761
3708375.01,82,775
3708375.019,3,839
3708375.019,-21,856
3708375.028,-24,858
3708375.028,-9,842
3708375.033,71,778
3708375.033,97,761
3708375.043,97,760
3708375.043,78,776
3708375.054,3,840
3708375.054,-23,857
3708375.058,-25,858
3708375.058,-9,841
3708375.067,71,779
3708375.067,94,762
3708375.076,96,760
3708375.076,81,776
3708375.089,2,840
3708375.089,-25,857
3708375.092,-25,857
3708375.092,-8,842
3708375.098,72,778
3708375.098,97,761
3708375.107,99,761
3708375.107,81,776
3708375.113,3,840
3708375.113,-25,857
3708375.122,-25,857
3708375.122,-12,842
3708375.134,69,779
3708375.134,94,761
3708375.137,97,760
3708375.137,79,777
3708375.147,0,839
3708375.147,-25,856
3708375.155,-27,857
3708375.155,-9,842
3708375.164,69,779
3708375.164,93,762
3708375.17,94,761
3708375.17,79,774
3708375.179,1,838
3708375.179,-24,856
3708375.193,-26,856
3708375.193,-10,843
3708375.195,69,779
3708375.195,94,760
3708375.22,93,761
3708375.221,78,776
3708375.229,1,840
3708375.229,-25,857
3708375.234,-27,857
3708375.234,-10,841
3708375.238,68,778
3708375.238,95,761
3708375.239,98,760
3708375.239,79,775
3708375.244,-2,839
3708375.244,-27,856
3708375.253,-28,856
3708375.253,-10,841
3708375.259,69,778
3708375.259,95,760
3708375.268,95,760
3708375.268,79,774
3708375.275,1,838
3708375.275,-26,857
3708375.283,-27,856
3708375.283,-9,841
3708375.294,70,776
3708375.294,95,760
3708375.297,95,759
3708375.297,77,774
3708375.306,1,839
3708375.306,-25,855
3708375.315,-26,857
3708375.315,-8,842
3708375.334,68,778
3708375.334,94,760
3708375.334,94,760
3708375.334,77,774
3708375.338,-1,839
3708375.338,-25,856
3708375.347,-26,856
3708375.347,-9,842
3708375.355,68,777
3708375.355,93,760
3708375.373,96,760
3708375.373,81,775
3708375.373,2,838
3708375.373,-25,855
3708375.377,-25,856
3708375.377,-8,840
3708375.386,70,777
3708375.386,94,760
3708375.395,96,760
3708375.395,78,775
3708375.405,-1,837
3708375.405,-26,855
3708375.411,-27,856
3708375.411,-8,841
3708375.419,68,777
3708375.419,94,761
3708375.427,95,758
3708375.427,79,774
3708375.434,-2,838
3708375.434,-26,854
3708375.443,-27,855
3708375.443,-10,841
3708375.451,69,777
3708375.451,95,760
3708375.46,95,759
3708375.46,77,776
3708375.465,-1,840
3708375.465,-26,856
3708375.478,-27,857
3708375.478,-10,841
3708375.484,69,777
3708375.484,95,759
3708375.49,96,757
3708375.49,78,774
3708375.517,-2,837
3708375.517,-28,856
3708375.531,-27,855
3708375.531,-10,838
3708375.531,67,775
3708375.531,94,756
3708375.534,95,755
3708375.534,76,771
3708375.535,0,835
3708375.535,-24,851
3708375.537,-26,850
3708375.537,-10,836
3708375.547,69,772
3708375.548,95,756
3708375.554,97,755
3708375.554,77,771
3708375.563,-3,834
3708375.563,-29,851
3708375.571,-31,851
3708375.572,-10,837
3708375.58,69,773
3708375.58,93,756
3708375.587,95,756
3708375.587,77,771
3708375.595,-1,834
3708375.595,-27,852
3708375.604,-29,852
3708375.604,-11,836
3708375.611,68,772
3708375.611,92,754
3708375.619,93,754
3708375.619,78,770
3708375.631,-2,834
3708375.631,-28,852
3708375.657,-27,851
3708375.657,-10,835
3708375.657,69,772
3708375.657,94,754
3708375.657,93,754
3708375.657,76,770
3708375.659,-2,832
3708375.659,-27,849
3708375.67,-27,850
3708375.67,-13,835
3708375.674,69,773
3708375.674,94,755
3708375.683,93,753
3708375.683,77,769
3708375.691,-3,833
3708375.691,-28,850
3708375.698,-28,850
3708375.698,-10,835
3708375.706,67,771
3708375.706,92,754
3708375.718,93,755
3708375.718,75,769
3708375.724,-2,832
3708375.724,-26,850
3708375.73,-28,849
3708375.73,-11,834
3708375.739,66,771
3708375.739,94,754
3708375.758,94,753
3708375.758,77,769
3708375.758,-2,833
3708375.758,-28,851
3708375.763,-29,850
3708375.763,-10,836
3708375.77,68,773
3708375.77,93,755
3708375.779,93,754
3708375.779,76,768
3708375.793,-1,832
3708375.793,-26,851
3708375.817,-29,851
3708375.817,-11,835
3708375.831,68,772
3708375.831,92,756
3708375.832,93,755
3708375.832,76,769
3708375.833,-1,833
3708375.833,-27,851
3708375.835,-30,850
3708375.835,-13,837
3708375.837,68,774
3708375.837,93,755
3708375.842,93,755
3708375.842,77,770
3708375.851,-2,834
3708375.851,-28,850
3708375.86,-28,851
3708375.86,-12,836
3708375.866,66,773
3708375.866,92,756
3708375.876,93,755
3708375.876,77,769
3708375.886,-3,834
3708375.886,-27,850
3708375.89,-28,851
3708375.89,-11,836
3708375.899,67,772
3708375.899,91,756
3708375.918,91,755
3708375.918,76,769
3708375.918,-6,834
3708375.918,-32,849
3708375.924,-29,851
3708375.924,-11,837
3708375.93,68,773
3708375.93,92,755
3708375.939,93,755
3708375.939,78,770
3708375.947,-1,834
3708375.947,-29,852
3708375.954,-29,852
3708375.954,-12,838
3708375.963,67,774
3708375.963,92,757
3708375.974,94,757
3708375.974,76,772
3708375.978,-2,835
3708375.978,-27,853
3708375.987,-28,854
3708375.987,-11,838
3708375.995,66,776
3708375.995,92,758
3708376.003,93,757
3708376.003,77,772
3708376.009,-2,835
3708376.009,-29,854
3708376.018,-27,855
3708376.018,-11,839
3708376.028,68,775
3708376.028,93,758
3708376.034,93,758
3708376.034,76,773
3708376.05,-3,836
3708376.05,-28,854
3708376.051,-28,854
3708376.051,-11,839
3708376.062,68,775
3708376.062,92,758
3708376.067,93,757
3708376.067,75,772
3708376.073,-3,834
3708376.073,-28,853
3708376.082,-28,854
3708376.082,-12,840
3708376.091,67,777
3708376.091,91,758
3708376.117,94,758
3708376.117,76,774
3708376.13,-3,836
3708376.13,-25,854
3708376.131,-28,854
3708376.131,-13,838
3708376.135,67,776
3708376.135,89,759
3708376.135,93,759
3708376.135,78,772
3708376.14,-2,837
3708376.14,-27,854
3708376.147,-28,855
3708376.147,-10,841
3708376.155,71,777
3708376.155,92,758
3708376.164,93,759
3708376.164,77,773
3708376.169,-2,837
3708376.169,-27,854
3708376.178,-29,854
3708376.178,-12,839
3708376.198,68,776
3708376.198,93,758
3708376.198,93,757
3708376.198,77,771
3708376.204,-1,835
3708376.204,-28,853
3708376.211,-28,853
3708376.211,-11,838
3708376.221,66,774
3708376.221,91,757
3708376.227,93,758
3708376.227,75,774
3708376.233,-3,837
3708376.233,-27,854
3708376.242,-27,855
3708376.242,-12,839
3708376.251,66,776
3708376.251,93,759
3708376.257,92,758
3708376.257,76,774
3708376.268,-2,837
3708376.268,-28,854
3708376.275,-29,854
3708376.275,-12,839
3708376.284,64,776
3708376.284,89,758
3708376.29,90,758
3708376.29,75,773
3708376.302,-2,837
3708376.302,-29,854
3708376.308,-32,855
3708376.308,-12,839
3708376.314,65,775
3708376.314,89,757
3708376.323,92,758
3708376.323,75,772
3708376.341,-4,837
3708376.341,-29,854
3708376.341,-29,854
3708376.341,-15,839
3708376.347,66,774
3708376.347,90,758
3708376.353,91,758
3708376.353,76,772
3708376.362,-3,836
3708376.362,-28,853
3708376.371,-30,853
3708376.371,-14,839
3708376.377,63,775
3708376.377,91,759
3708376.386,91,758
3708376.386,75,773
3708376.395,-6,836
3708376.395,-32,852
3708376.416,-30,851
3708376.416,-14,839
3708376.431,65,775
3708376.431,91,757
3708376.432,90,756
3708376.432,75,769
3708376.435,-3,831
3708376.435,-30,850
3708376.436,-31,852
3708376.436,-15,836
3708376.445,66,771
3708376.445,89,754
3708376.451,92,754
3708376.451,76,768
3708376.46,-2,833
3708376.46,-29,851
3708376.469,-30,850
3708376.469,-12,835
3708376.473,64,771
3708376.473,92,755
3708376.482,93,755
3708376.482,74,770
3708376.502,-4,832
3708376.502,-28,851
3708376.504,-31,850
3708376.504,-14,835
3708376.507,65,772
3708376.507,89,755
3708376.516,94,753
3708376.516,74,769
3708376.525,-3,832
3708376.525,-29,849
3708376.531,-31,851
3708376.531,-13,835
3708376.539,65,771
3708376.539,91,754
3708376.547,93,754
3708376.547,75,769
3708376.554,-4,832
3708376.554,-27,851
3708376.563,-30,851
3708376.563,-13,835
3708376.571,66,772
3708376.571,90,755
3708376.58,93,754
3708376.58,76,769
3708376.586,-2,834
3708376.586,-27,851
3708376.6,-31,849
3708376.6,-14,835
3708376.602,65,771
3708376.602,90,753
3708376.611,91,753
3708376.611,73,770
3708376.619,-6,832
3708376.619,-30,850
3708376.631,-31,850
3708376.631,-13,834
3708376.635,66,770
3708376.635,90,753
3708376.643,92,753
3708376.643,75,768
3708376.651,-3,832
3708376.651,-28,850
3708376.657,-31,849
3708376.657,-14,835
3708376.666,64,771
3708376.666,89,754
3708376.675,93,754
3708376.675,74,768
3708376.684,-5,832
3708376.684,-30,851
3708376.689,-30,850
3708376.689,-13,835
3708376.717,66,771
3708376.717,92,753
3708376.73,93,753
3708376.73,76,767
3708376.732,-2,831
3708376.732,-28,851
3708376.733,-31,850
3708376.733,-11,835
3708376.735,67,771
3708376.735,90,754
3708376.739,92,753
3708376.739,74,769
3708376.753,-4,832
3708376.753,-28,850
3708376.756,-31,850
3708376.756,-14,834
3708376.763,65,770
3708376.763,91,752
3708376.781,92,754
3708376.781,74,770
3708376.781,-5,832
3708376.781,-30,848
3708376.787,-31,848
3708376.787,-14,834
3708376.793,65,770
3708376.793,91,753
3708376.802,92,754
3708376.802,76,768
3708376.811,-5,830
3708376.811,-30,849
3708376.82,-31,849
3708376.82,-16,834
3708376.825,65,770
3708376.825,91,754
3708376.835,91,754
3708376.835,74,769
3708376.844,-3,832
3708376.844,-27,851
3708376.85,-32,852
3708376.85,-16,836
3708376.859,60,772
3708376.859,88,756
3708376.868,90,755
3708376.868,72,770
3708376.881,-6,833
3708376.881,-32,850
3708376.882,-33,850
3708376.882,-14,834
3708376.895,62,772
3708376.895,89,754
3708376.897,90,753
3708376.897,72,768
3708376.907,-7,832
3708376.907,-32,849
3708376.935,-33,851
3708376.935,-16,835
3708376.936,64,770
3708376.936,90,754
3708376.938,90,755
3708376.938,72,769
3708376.939,-5,833
3708376.939,-32,850
3708376.946,-35,851
3708376.946,-17,835
3708376.955,63,772
3708376.955,88,752
3708376.964,89,753
3708376.964,73,769
3708376.969,-6,832
3708376.969,-33,852
3708376.978,-32,852
3708376.978,-15,836
3708376.987,63,773
3708376.987,87,755
3708376.993,88,756
3708376.993,73,771
3708377.017,-6,833
3708377.017,-31,851
3708377.031,-32,851
3708377.031,-15,835
3708377.032,65,772
3708377.032,88,755
3708377.033,88,753
3708377.033,72,770
3708377.036,-4,833
3708377.036,-30,850
3708377.042,-33,851
3708377.042,-14,836
3708377.051,63,772
3708377.051,88,755
3708377.07,91,754
3708377.07,75,769
3708377.07,-6,832
3708377.07,-31,851
3708377.073,-32,851
3708377.073,-15,836
3708377.083,64,772
3708377.083,89,754
3708377.091,91,753
3708377.091,73,769
3708377.098,-6,834
3708377.098,-29,852
3708377.107,-31,850
3708377.107,-14,836
3708377.115,66,772
3708377.115,88,755
3708377.127,90,755
3708377.127,73,769
3708377.131,-7,833
3708377.131,-31,850
3708377.139,-32,851
3708377.139,-14,836
3708377.148,66,773
3708377.148,89,755
3708377.155,91,754
3708377.155,73,769
3708377.163,-6,834
3708377.163,-31,851
3708377.181,-32,852
3708377.181,-15,836
3708377.181,64,773
3708377.181,89,756
3708377.187,91,754
3708377.187,74,770
3708377.196,-4,833
3708377.196,-32,850
3708377.204,-35,851
3708377.204,-17,836
3708377.211,62,772
3708377.211,87,754
3708377.217,88,754
3708377.217,72,769
3708377.228,-9,833
3708377.228,-35,850
3708377.236,-33,850
3708377.236,-15,835
3708377.245,62,771
3708377.245,88,754
3708377.25,89,755
3708377.25,72,769
3708377.259,-5,833
3708377.259,-33,851
3708377.268,-34,851
3708377.268,-18,837
3708377.273,61,772
3708377.273,88,753
3708377.283,90,754
3708377.283,71,770
3708377.294,-7,833
3708377.294,-32,850
3708377.317,-32,851
3708377.317,-16,835
3708377.331,62,771
3708377.331,87,754
3708377.332,88,753
3708377.332,72,769
3708377.333,-10,833
3708377.333,-37,850
3708377.336,-37,850
3708377.336,-19,836
3708377.337,60,771
3708377.337,86,753
3708377.352,89,753
3708377.352,70,770
3708377.357,-8,834
3708377.357,-33,852
3708377.364,-35,851
3708377.364,-17,835
3708377.37,63,772
3708377.37,88,755
3708377.38,89,755
3708377.38,72,769
3708377.388,-6,833
3708377.388,-33,851
3708377.394,-35,851
3708377.394,-17,835
3708377.403,62,774
3708377.403,88,756
3708377.411,88,754
3708377.411,71,770
3708377.42,-6,834
3708377.42,-33,851
3708377.426,-34,851
3708377.426,-19,837
3708377.435,60,774
3708377.435,83,757
3708377.454,84,757
3708377.454,68,771
3708377.454,-8,834
3708377.454,-33,852
3708377.458,-34,852
3708377.458,-18,838
3708377.469,60,774
3708377.469,87,758
3708377.473,88,756
3708377.473,71,771
3708377.483,-9,835
3708377.483,-34,852
3708377.492,-37,853
3708377.492,-17,838
3708377.498,61,774
3708377.498,87,757
3708377.506,88,757
3708377.506,71,773
3708377.516,-9,836
3708377.516,-34,853
3708377.525,-34,853
3708377.525,-19,838
3708377.53,59,776
3708377.53,87,757
3708377.541,88,756
3708377.541,69,771
3708377.547,-11,837
3708377.547,-35,855
3708377.554,-33,854
3708377.554,-17,839
3708377.562,62,776
3708377.562,88,758
3708377.571,85,758
3708377.571,70,772
3708377.58,-7,836
3708377.58,-33,853
3708377.586,-36,855
3708377.586,-17,839
3708377.616,61,775
3708377.616,85,757
3708377.616,88,756
3708377.616,69,772
3708377.63,-10,835
3708377.63,-37,854
3708377.631,-35,854
3708377.631,-16,838
3708377.633,60,775
3708377.633,84,757
3708377.635,88,756
3708377.635,71,771
3708377.643,-8,834
3708377.643,-34,852
3708377.652,-36,852
3708377.652,-18,838
3708377.658,62,774
3708377.658,86,757
3708377.667,87,756
3708377.667,71,771
3708377.675,-9,834
3708377.675,-34,851
3708377.683,-34,852
3708377.683,-18,838
3708377.691,62,774
3708377.691,85,756
3708377.699,85,755
3708377.699,70,771
3708377.712,-9,835
3708377.712,-34,852
3708377.714,-36,850
3708377.714,-18,837
3708377.723,61,773
3708377.723,85,756
3708377.741,86,755
3708377.741,71,771
3708377.741,-9,834
3708377.741,-35,850
3708377.747,-35,851
3708377.747,-18,836
3708377.756,58,772
3708377.756,85,755
3708377.763,90,753
3708377.763,71,767
3708377.772,-7,830
3708377.772,-33,848
3708377.779,-34,848
3708377.779,-17,834
3708377.786,62,769
3708377.786,87,752
3708377.797,88,751
3708377.797,72,766
3708377.804,-6,831
3708377.804,-33,848
3708377.81,-36,849
3708377.81,-17,833
3708377.819,62,769
3708377.819,87,753
3708377.828,87,752
3708377.828,70,766
3708377.833,-5,830
3708377.833,-33,848
3708377.842,-32,848
3708377.842,-16,833
3708377.852,62,769
3708377.852,86,751
3708377.861,88,751
3708377.861,71,767
3708377.869,-6,831
3708377.869,-33,847
3708377.874,-35,847
3708377.874,-15,834
3708377.886,62,769
3708377.886,85,752
3708377.89,90,752
3708377.89,72,767
3708377.916,-8,830
3708377.916,-33,847
3708377.931,-34,847
3708377.931,-19,833
3708377.932,59,769
3708377.932,85,751
3708377.934,88,750
3708377.934,72,766
3708377.935,-9,830
3708377.935,-34,847
3708377.939,-37,847
3708377.939,-19,831
3708377.949,63,768
3708377.949,87,750
3708377.954,86,751
3708377.954,70,766
3708377.962,-8,829
3708377.962,-33,847
3708377.97,-36,847
3708377.97,-15,831
3708377.979,62,767
3708377.979,85,749
3708377.988,88,750
3708377.988,70,765
3708377.993,-8,829
3708377.993,-36,846
3708378.002,-35,847
3708378.002,-15,833
3708378.021,60,770
3708378.021,83,751
3708378.021,84,751
3708378.021,67,766
3708378.028,-12,828
3708378.028,-37,846
3708378.037,-39,846
3708378.037,-23,832
3708378.043,56,768
3708378.043,84,751
3708378.052,84,751
3708378.052,66,765
3708378.06,-10,829
3708378.06,-35,845
3708378.066,-38,846
3708378.066,-21,832
3708378.075,61,767
3708378.075,89,749
3708378.084,87,750
3708378.084,69,765
3708378.091,-9,828
3708378.091,-35,845
3708378.099,-37,847
3708378.099,-20,831
3708378.108,60,767
3708378.108,85,751
3708378.114,84,750
3708378.114,70,765
3708378.126,-9,829
3708378.126,-34,846
3708378.132,-36,847
3708378.132,-20,832
3708378.141,60,768
3708378.141,84,749
3708378.147,87,749
3708378.147,68,764
3708378.16,-10,828
3708378.16,-34,846
3708378.162,-35,847
3708378.162,-18,830
3708378.17,60,765
3708378.17,84,748
3708378.178,85,747
3708378.178,67,759
3708378.214,-9,819
3708378.214,-35,834
3708378.214,-36,833
3708378.214,-20,814
3708378.237,58,749
3708378.238,84,731
3708378.246,87,730
3708378.246,69,744
3708378.246,-11,808
3708378.246,-36,826
3708378.248,-37,826
3708378.248,-18,810
3708378.253,61,746
3708378.253,84,729
3708378.255,84,728
3708378.255,68,743
3708378.256,-9,807
3708378.256,-35,825
3708378.258,-38,825
3708378.258,-20,809
3708378.274,59,745
3708378.274,84,728
3708378.274,85,728
3708378.274,68,743
3708378.284,-11,807
3708378.284,-35,825
3708378.302,-36,824
3708378.302,-17,809
3708378.302,60,747
3708378.302,84,729
3708378.307,85,728
3708378.307,68,744
3708378.313,-10,808
3708378.313,-36,824
3708378.322,-38,823
3708378.322,-19,810
3708378.341,59,747
3708378.341,85,730
3708378.342,86,729
3708378.342,69,743
3708378.349,-10,806
3708378.349,-35,824
3708378.354,-35,825
3708378.354,-22,810
3708378.363,58,746
3708378.363,86,727
3708378.371,85,728
3708378.371,68,743
3708378.378,-12,807
3708378.378,-37,824
3708378.387,-36,824
3708378.387,-18,809
3708378.398,60,745
3708378.398,83,728
3708378.404,84,728
3708378.404,67,744
3708378.411,-9,807
3708378.411,-34,823
3708378.419,-38,825
3708378.419,-21,811
3708378.428,59,747
3708378.428,86,729
3708378.433,87,728
3708378.433,67,744
3708378.442,-10,807
3708378.442,-36,825
3708378.461,-37,825
3708378.461,-22,811
3708378.461,56,747
3708378.461,85,730
3708378.468,85,730
3708378.468,68,745
3708378.475,-10,808
3708378.475,-36,824
3708378.486,-38,824
3708378.486,-21,810
3708378.491,59,746
3708378.491,84,728
3708378.516,84,729
3708378.516,67,743
3708378.53,-10,807
3708378.53,-35,825
3708378.531,-37,825
3708378.531,-20,810
3708378.533,60,746
3708378.533,83,728
3708378.535,84,729
3708378.535,68,745
3708378.538,-11,808
3708378.538,-37,825
3708378.548,-37,826
3708378.548,-20,811
3708378.554,59,747
3708378.554,84,729
3708378.565,86,728
3708378.565,67,743
3708378.572,-11,806
3708378.572,-38,826
3708378.581,-37,826
3708378.581,-20,809
3708378.586,60,747
3708378.586,83,732
3708378.595,86,732
3708378.595,67,748
3708378.613,-11,812
3708378.613,-37,829
3708378.613,-36,829
3708378.613,-18,814
3708378.617,58,751
3708378.617,83,734
3708378.626,84,733
3708378.626,66,748
3708378.636,-10,811
3708378.636,-35,829
3708378.645,-38,830
3708378.645,-23,814
3708378.651,58,750
3708378.651,84,734
3708378.66,85,735
3708378.66,69,749
3708378.669,-9,813
3708378.669,-35,830
3708378.675,-36,831
3708378.675,-19,816
3708378.683,58,750
3708378.683,85,734
3708378.692,86,735
3708378.692,69,749
3708378.699,-11,813
3708378.699,-34,830
3708378.705,-35,829
3708378.705,-20,815
3708378.726,58,752
3708378.726,84,735
3708378.726,86,733
3708378.726,71,749
3708378.732,-8,812
3708378.732,-35,830
3708378.742,-38,830
3708378.742,-20,814
3708378.746,58,751
3708378.746,84,734
3708378.755,83,733
3708378.755,67,749
3708378.763,-12,813
3708378.763,-37,829
3708378.77,-36,830
3708378.77,-19,816
3708378.78,61,752
3708378.78,86,734
3708378.789,86,734
3708378.789,69,750
3708378.795,-8,813
3708378.795,-34,829
3708378.818,-35,830
3708378.818,-19,817
3708378.83,60,752
3708378.83,86,734
3708378.831,88,735
3708378.831,69,750
3708378.834,-11,813
3708378.834,-37,831
3708378.835,-39,831
3708378.835,-23,815
3708378.843,57,753
3708378.843,82,736
3708378.852,82,736
3708378.852,66,749
3708378.86,-12,813
3708378.86,-37,831
3708378.865,-38,831
3708378.865,-22,816
3708378.875,58,753
3708378.875,83,736
3708378.894,84,735
3708378.894,68,752
3708378.894,-13,815
3708378.894,-38,833
3708378.898,-38,833
3708378.898,-20,817
3708378.908,58,752
3708378.908,81,736
3708378.915,83,736
3708378.915,68,752
3708378.921,-12,816
3708378.921,-38,833
3708378.93,-38,833
3708378.93,-22,818
3708378.939,57,755
3708378.939,83,737
3708378.947,83,738
3708378.947,65,754
3708378.956,-12,817
3708378.956,-36,834
3708378.962,-36,835
3708378.962,-21,820
3708378.971,59,756
3708378.971,85,738
3708378.981,85,737
3708378.981,68,754
3708378.988,-11,817
3708378.988,-36,834
3708379.005,-37,834
3708379.005,-19,820
3708379.005,59,755
3708379.005,85,738
3708379.012,83,738
3708379.012,67,753
3708379.031,-10,817
3708379.031,-34,833
3708379.031,-37,834
3708379.031,-21,819
3708379.034,57,755
3708379.034,83,739
3708379.043,85,739
3708379.043,68,754
3708379.051,-12,818
3708379.051,-37,836
3708379.057,-37,836
3708379.057,-21,821
3708379.076,58,756
3708379.076,83,739
3708379.076,83,738
3708379.076,66,753
3708379.082,-8,817
3708379.082,-36,835
3708379.095,-39,834
3708379.095,-23,820
3708379.118,58,756
3708379.118,82,739
3708379.13,84,738
3708379.13,68,753
3708379.131,-10,818
3708379.131,-37,835
3708379.134,-37,835
3708379.134,-21,820
3708379.137,54,758
3708379.137,81,740
3708379.138,83,739
3708379.138,67,755
3708379.15,-12,818
3708379.15,-40,834
3708379.153,-39,835
3708379.153,-20,821
3708379.162,57,757
3708379.162,82,741
3708379.173,83,740
3708379.173,67,755
3708379.178,-11,817
3708379.178,-37,834
3708379.187,-41,835
3708379.187,-23,820
3708379.196,57,756
3708379.196,80,738
3708379.202,82,739
3708379.202,65,754
3708379.211,-13,817
3708379.211,-36,834
3708379.22,-39,834
3708379.22,-23,820
3708379.227,56,757
3708379.227,83,739
3708379.233,82,739
3708379.233,66,754
3708379.242,-13,817
3708379.242,-40,836
3708379.254,-40,835
3708379.254,-22,820
3708379.258,57,756
3708379.258,82,739
3708379.266,81,739
3708379.266,65,754
3708379.274,-13,817
3708379.274,-39,834
3708379.294,-41,834
3708379.294,-22,819
3708379.294,55,756
3708379.294,82,738
3708379.298,82,739
3708379.298,64,754
3708379.307,-13,817
3708379.307,-39,834
3708379.314,-41,835
3708379.314,-23,820
3708379.335,54,756
3708379.335,81,739
3708379.335,82,739
3708379.335,65,753
3708379.338,-14,817
3708379.338,-39,835
3708379.35,-41,834
3708379.35,-24,820
3708379.356,56,757
3708379.356,81,738
3708379.365,82,738
3708379.365,65,754
3708379.371,-14,817
3708379.371,-40,835
3708379.379,-41,834
3708379.379,-22,821
3708379.388,56,758
3708379.388,81,739
3708379.394,82,738
3708379.394,64,753
3708379.417,-12,817
3708379.417,-39,834
3708379.43,-42,833
3708379.43,-22,820
3708379.43,57,756
3708379.43,81,740
3708379.434,82,738
3708379.434,64,752
3708379.436,-14,816
3708379.436,-40,834
3708379.443,-40,834
3708379.443,-23,819
3708379.462,55,756
3708379.462,80,738
3708379.462,81,738
3708379.462,65,753
3708379.468,-14,816
3708379.468,-39,833
3708379.496,-38,835
3708379.496,-24,819
3708379.499,55,755
3708379.499,81,737
3708379.5,82,737
3708379.5,66,753
3708379.5,-12,816
3708379.5,-38,835
3708379.508,-39,835
3708379.508,-21,819
3708379.514,56,755
3708379.514,82,738
3708379.523,82,738
3708379.523,65,753
3708379.532,-12,818
3708379.532,-38,835
3708379.539,-40,834
3708379.539,-22,818
3708379.545,57,755
3708379.545,81,737
3708379.556,82,738
3708379.556,65,753
3708379.57,-15,816
3708379.57,-39,834
3708379.572,-38,833
3708379.572,-22,818
3708379.58,56,754
3708379.58,81,737
3708379.599,83,737
3708379.599,65,751
3708379.599,-14,815
3708379.599,-39,832
3708379.602,-39,833
3708379.602,-21,818
3708379.61,58,753
3708379.61,79,737
3708379.619,81,737
3708379.619,65,752
3708379.628,-18,814
3708379.628,-41,832
3708379.634,-39,834
3708379.634,-22,818
3708379.642,56,753
3708379.642,83,736
3708379.651,81,737
3708379.651,67,753
3708379.658,-13,816
3708379.658,-38,834
3708379.667,-39,833
3708379.667,-21,818
3708379.675,56,755
3708379.675,81,738
3708379.687,85,738
3708379.687,65,752
3708379.692,-13,816
3708379.692,-38,834
3708379.717,-38,833
3708379.717,-22,818
3708379.731,58,755
3708379.731,83,738
3708379.732,83,737
3708379.732,65,751
3708379.732,-13,815
3708379.732,-38,832
3708379.736,-39,832
3708379.736,-19,817
3708379.742,57,752
3708379.742,83,737
3708379.749,84,735
3708379.749,66,750
3708379.754,-14,814
3708379.754,-40,832
3708379.765,-40,833
3708379.765,-23,819
3708379.771,56,755
3708379.771,80,738
3708379.779,80,738
3708379.779,64,754
3708379.786,-16,816
3708379.786,-39,834
3708379.795,-40,834
3708379.795,-24,819
3708379.804,55,755
3708379.804,80,737
3708379.81,81,737
3708379.81,63,751
3708379.819,-15,815
3708379.819,-39,833
3708379.827,-40,832
3708379.827,-23,816
3708379.833,55,753
3708379.833,79,734
3708379.845,80,734
3708379.845,64,749
3708379.852,-16,813
3708379.852,-42,830
3708379.87,-40,828
3708379.87,-25,815
3708379.87,52,752
3708379.87,80,734
3708379.874,79,734
3708379.874,62,748
3708379.883,-16,812
3708379.883,-40,830
3708379.892,-41,829
3708379.892,-23,814
3708379.898,53,752
3708379.898,77,733
3708379.907,81,733
3708379.907,64,748
3708379.916,-15,812
3708379.916,-39,831
3708379.923,-42,831
3708379.923,-26,816
3708379.93,54,752
3708379.93,78,734
3708379.939,80,732
3708379.939,63,749
3708379.947,-17,812
3708379.947,-40,829
3708379.954,-41,830
3708379.954,-24,814
3708379.962,54,750
3708379.962,77,734
3708379.971,79,734
3708379.971,62,748
3708379.98,-16,811
3708379.98,-40,828
3708379.989,-43,829
3708379.989,-26,814
3708379.995,54,750
3708379.995,78,733
3708380.033,81,732
3708380.033,63,748
3708380.034,-15,811
3708380.034,-40,828
3708380.035,-42,829
3708380.035,-25,815
3708380.037,54,751
3708380.037,79,734
3708380.042,79,733
3708380.042,63,748
3708380.044,-15,810
3708380.044,-38,828
3708380.051,-42,827
3708380.051,-25,812
3708380.057,55,746
3708380.057,81,728
3708380.066,81,726
3708380.066,63,740
3708380.075,-17,804
3708380.075,-40,823
3708380.084,-41,822
3708380.084,-23,807
3708380.09,55,742
3708380.09,78,725
3708380.1,81,725
3708380.1,63,741
3708380.106,-14,804
3708380.106,-41,822
3708380.115,-42,822
3708380.115,-24,807
3708380.124,54,743
3708380.124,77,725
3708380.132,79,725
3708380.132,63,740
3708380.141,-18,804
3708380.141,-44,822
3708380.158,-42,822
3708380.158,-24,807
3708380.158,53,742
3708380.158,81,724
3708380.165,82,725
3708380.165,63,741
3708380.171,-16,804
3708380.171,-40,821
3708380.181,-39,820
3708380.181,-23,806
3708380.187,53,743
3708380.187,80,725
3708380.194,81,725
3708380.194,63,740
3708380.202,-15,803
3708380.202,-41,821
3708380.211,-40,821
3708380.211,-23,806
3708380.216,55,743
3708380.216,82,726
3708380.228,81,725
3708380.228,65,739
3708380.235,-16,803
3708380.235,-40,820
3708380.244,-42,821
3708380.244,-23,806
3708380.25,54,742
3708380.25,79,725
3708380.262,80,724
3708380.262,64,738
3708380.268,-15,803
3708380.268,-41,820
3708380.274,-41,820
3708380.274,-24,805
3708380.282,52,741
3708380.282,78,723
3708380.316,80,725
3708380.316,61,739
3708380.316,-16,803
3708380.316,-39,820
3708380.331,-43,820
3708380.331,-26,805
3708380.332,53,742
3708380.332,78,724
3708380.334,79,724
3708380.334,61,739
3708380.335,-17,802
3708380.335,-41,820
3708380.338,-41,820
3708380.338,-23,805
3708380.348,55,741
3708380.348,80,724
3708380.354,80,722
3708380.354,62,738
3708380.363,-14,803
3708380.363,-41,820
3708380.372,-41,820
3708380.372,-24,804
3708380.38,53,740
3708380.38,79,722
3708380.387,81,723
3708380.387,63,738
3708380.394,-17,802
3708380.394,-40,820
3708380.403,-41,819
3708380.403,-24,804
3708380.419,53,741
3708380.419,77,723
3708380.419,78,723
3708380.419,62,738
3708380.431,-15,802
3708380.431,-41,819
3708380.435,-41,819
3708380.435,-24,804
3708380.442,52,740
3708380.442,80,723
3708380.461,81,724
3708380.461,64,740
3708380.461,-15,802
3708380.461,-40,820
3708380.467,-42,820
3708380.467,-25,806
3708380.474,55,743
3708380.474,79,725
3708380.482,79,724
3708380.482,62,739
3708380.491,-16,802
3708380.491,-40,820
3708380.498,-42,820
3708380.498,-27,805
3708380.506,53,739
3708380.506,80,722
3708380.515,81,720
3708380.515,63,735
3708380.524,-17,799
3708380.524,-41,817
3708380.53,-44,817
3708380.53,-28,801
3708380.539,52,737
3708380.539,77,720
3708380.558,77,720
3708380.558,59,735
3708380.558,-17,799
3708380.558,-41,817
3708380.564,-43,817
3708380.564,-26,801
3708380.571,50,738
3708380.571,77,722
3708380.58,78,720
3708380.58,61,736
3708380.617,-17,797
3708380.617,-41,816
3708380.617,-43,818
3708380.617,-27,803
3708380.63,52,739
3708380.63,78,721
3708380.631,80,720
3708380.631,64,735
3708380.633,-14,798
3708380.633,-43,816
3708380.635,-43,818
3708380.635,-25,802
3708380.638,52,738
3708380.638,75,720
3708380.643,78,721
3708380.643,61,736
3708380.652,-17,800
3708380.652,-42,816
3708380.658,-41,817
3708380.658,-27,801
3708380.666,52,738
3708380.666,77,720
3708380.674,79,721
3708380.674,62,736
3708380.683,-17,799
3708380.683,-41,816
3708380.691,-43,816
3708380.691,-26,801
3708380.699,52,738
3708380.699,79,721
3708380.718,80,721
3708380.718,63,735
3708380.718,-17,798
3708380.718,-41,816
3708380.723,-43,817
3708380.723,-26,802
3708380.73,51,738
3708380.73,76,721
3708380.739,80,721
3708380.739,62,736
3708380.747,-16,799
3708380.747,-40,817
3708380.775,-44,817
3708380.775,-27,803
3708380.778,54,740
3708380.778,76,721
3708380.779,76,721
3708380.779,62,736
3708380.78,-16,800
3708380.78,-43,817
3708380.785,-45,817
3708380.785,-27,801
3708380.794,51,738
3708380.794,77,720
3708380.804,78,719
3708380.804,63,733
3708380.811,-16,796
3708380.811,-42,813
3708380.819,-43,814
3708380.819,-26,799
3708380.828,54,735
3708380.828,76,717
3708380.835,78,717
3708380.835,62,732
3708380.843,-18,795
3708380.843,-42,813
3708380.862,-43,813
3708380.862,-26,796
3708380.862,54,734
3708380.862,77,717
3708380.867,79,717
3708380.867,63,732
3708380.873,-17,795
3708380.873,-42,813
3708380.882,-42,813
3708380.882,-25,797
3708380.891,54,735
3708380.891,79,717
3708380.916,78,717
3708380.916,60,732
3708380.931,-15,795
3708380.931,-40,812
3708380.933,-42,813
3708380.933,-25,798
3708380.933,52,734
3708380.933,77,718
3708380.936,78,717
3708380.936,61,732
3708380.94,-16,796
3708380.94,-43,812
3708380.952,-42,813
3708380.952,-25,798
3708380.954,51,734
3708380.954,76,717
3708380.963,80,716
3708380.963,61,730
3708380.981,-15,796
3708380.981,-42,813
3708380.981,-44,813
3708380.981,-26,799
3708380.988,51,734
3708380.988,79,716
3708380.997,82,716
3708380.997,62,731
3708381.003,-18,796
3708381.003,-43,814
3708381.022,-43,814
3708381.022,-24,798
3708381.022,53,735
3708381.022,78,718
3708381.028,79,717
3708381.028,63,733
3708381.033,-14,797
3708381.033,-42,814
3708381.042,-46,814
3708381.042,-28,799
3708381.051,52,734
3708381.051,77,718
3708381.057,78,716
3708381.057,60,731
3708381.066,-19,795
3708381.066,-45,812
3708381.075,-44,811
3708381.075,-26,795
3708381.084,52,732
3708381.084,77,714
3708381.09,78,712
3708381.09,62,729
3708381.099,-18,792
3708381.099,-43,809
3708381.108,-42,810
3708381.108,-26,795
3708381.114,51,731
3708381.114,77,713
3708381.123,78,714
3708381.123,61,729
3708381.132,-17,791
3708381.132,-40,809
3708381.149,-44,810
3708381.149,-26,794
3708381.149,52,731
3708381.149,77,714
3708381.156,79,714
3708381.156,61,730
3708381.162,-17,793
3708381.162,-43,811
3708381.172,-44,811
3708381.172,-26,795
3708381.179,53,732
3708381.179,78,714
3708381.187,77,714
3708381.187,61,729
3708381.197,-19,794
3708381.197,-42,810
3708381.218,-45,810
3708381.218,-28,796
3708381.23,51,732
3708381.23,76,715
3708381.232,78,713
3708381.232,61,728
3708381.235,-19,793
3708381.235,-43,810
3708381.237,-44,810
3708381.237,-26,795
3708381.245,51,732
3708381.245,77,714
3708381.251,79,714
3708381.251,61,730
3708381.259,-17,793
3708381.259,-42,810
3708381.278,-43,810
3708381.278,-27,796
3708381.278,50,733
3708381.278,76,716
3708381.283,79,715
3708381.283,63,730
3708381.29,-16,794
3708381.29,-42,811
3708381.301,-44,811
3708381.301,-24,796
3708381.307,54,733
3708381.307,80,715
3708381.314,79,714
3708381.314,60,729
3708381.323,-18,793
3708381.323,-42,810
3708381.331,-44,810
3708381.331,-27,796
3708381.338,52,731
3708381.338,76,712
3708381.347,78,711
3708381.347,61,726
3708381.355,-18,789
3708381.355,-44,807
3708381.364,-46,806
3708381.364,-27,791
3708381.371,51,728
3708381.371,75,711
3708381.379,78,710
3708381.379,61,726
3708381.388,-18,790
3708381.388,-42,806
3708381.393,-44,806
3708381.393,-26,790
3708381.402,51,727
3708381.402,76,710
3708381.421,78,710
3708381.421,60,725
3708381.421,-18,789
3708381.421,-43,805
3708381.428,-45,806
3708381.428,-28,791
3708381.437,51,727
3708381.437,77,710
3708381.444,79,710
3708381.444,60,725
3708381.451,-16,789
3708381.451,-40,806
3708381.458,-43,807
3708381.458,-26,792
3708381.469,51,728
3708381.469,75,711
3708381.475,76,710
3708381.475,60,726
3708381.484,-20,790
3708381.484,-46,807
3708381.49,-47,807
3708381.49,-28,792
3708381.517,50,728
3708381.517,75,711
3708381.531,76,711
3708381.531,61,727
3708381.532,-18,790
3708381.532,-45,807
3708381.533,-43,808
3708381.533,-27,792
3708381.536,51,729
3708381.536,75,711
3708381.54,79,711
3708381.54,62,726
3708381.55,-19,790
3708381.55,-42,806
3708381.554,-43,806
3708381.554,-25,791
3708381.562,51,728
3708381.562,75,710
3708381.583,78,710
3708381.583,59,724
3708381.583,-21,787
3708381.583,-43,804
3708381.588,-44,804
3708381.588,-28,788
3708381.594,50,725
3708381.594,75,708
3708381.603,76,708
3708381.603,59,723
3708381.612,-19,786
3708381.612,-42,803
3708381.617,-43,804
3708381.617,-27,789
3708381.625,51,725
3708381.625,76,708
3708381.638,77,707
3708381.638,61,723
3708381.644,-18,786
3708381.644,-44,804
3708381.651,-45,804
3708381.651,-28,789
3708381.659,50,725
3708381.659,76,708
3708381.668,78,707
3708381.668,61,722
3708381.675,-18,786
3708381.675,-42,803
3708381.682,-45,803
3708381.682,-29,788
3708381.701,52,726
3708381.701,76,709
3708381.701,77,707
3708381.701,59,723
3708381.707,-19,787
3708381.707,-44,805
3708381.717,-45,805
3708381.717,-27,789
3708381.722,51,726
3708381.722,77,709
3708381.734,77,709
3708381.734,60,723
3708381.738,-19,787
3708381.738,-42,804
3708381.746,-44,804
3708381.746,-27,789
3708381.755,51,726
3708381.755,75,708
3708381.764,78,708
3708381.764,61,723
3708381.77,-18,786
3708381.77,-43,803
3708381.778,-41,805
3708381.778,-27,788
3708381.787,51,726
3708381.787,77,708
3708381.793,78,707
3708381.793,61,724
3708381.817,-16,786
3708381.817,-42,804
3708381.831,-44,803
3708381.831,-28,789
3708381.832,53,726
3708381.832,78,707
3708381.835,79,707
3708381.835,60,724
3708381.836,-18,788
3708381.836,-43,806
3708381.854,-43,806
3708381.854,-27,792
3708381.854,51,727
3708381.854,76,709
3708381.857,77,709
3708381.857,60,724
3708381.866,-18,788
3708381.866,-44,804
3708381.875,-47,804
3708381.875,-26,789
3708381.881,52,726
3708381.881,75,709
3708381.89,77,708
3708381.89,60,723
3708381.899,-18,787
3708381.899,-44,804
3708381.909,-46,804
3708381.909,-27,789
3708381.915,50,726
3708381.915,74,708
3708381.924,75,708
3708381.924,57,722
3708381.933,-21,786
3708381.933,-46,803
3708381.941,-46,805
3708381.941,-28,791
3708381.947,49,727
3708381.947,74,708
3708381.956,75,708
3708381.956,60,724
3708381.975,-20,787
3708381.975,-45,805
3708381.975,-44,805
3708381.975,-27,789
3708381.978,50,725
3708381.978,75,707
3708381.99,77,707
3708381.99,58,723
3708381.994,-19,786
3708381.994,-45,802
3708382.002,-45,802
3708382.002,-30,788
3708382.011,48,724
3708382.011,72,706
3708382.018,74,706
3708382.018,58,721
3708382.027,-21,784
3708382.027,-45,803
3708382.055,-46,803
3708382.055,-32,788
3708382.058,49,724
3708382.058,76,705
3708382.059,74,705
3708382.059,57,720
3708382.061,-21,785
3708382.061,-45,803
3708382.067,-47,803
3708382.067,-32,787
3708382.076,47,723
3708382.076,71,706
3708382.085,73,705
3708382.085,57,722
3708382.09,-22,786
3708382.09,-47,803
3708382.116,-49,802
3708382.116,-32,787
3708382.13,48,723
3708382.13,73,706
3708382.131,72,706
3708382.131,55,721
3708382.133,-22,784
3708382.133,-47,802
3708382.135,-48,802
3708382.135,-31,788
3708382.143,46,724
3708382.143,71,707
3708382.148,73,707
3708382.148,58,721
3708382.154,-22,785
3708382.154,-47,802
3708382.163,-49,803
3708382.163,-30,788
3708382.172,48,724
3708382.172,74,707
3708382.178,73,707
3708382.178,56,722
3708382.187,-24,786
3708382.187,-49,803
3708382.196,-50,804
3708382.196,-32,789
3708382.203,46,726
3708382.203,68,708
3708382.21,73,707
3708382.21,56,722
3708382.226,-21,785
3708382.226,-45,802
3708382.229,-49,803
3708382.229,-30,787
3708382.236,48,722
3708382.236,71,705
3708382.244,74,705
3708382.244,58,720
3708382.261,-20,784
3708382.261,-47,801
3708382.261,-46,801
3708382.261,-30,786
3708382.268,48,723
3708382.268,72,705
3708382.276,72,705
3708382.276,54,721
3708382.283,-21,784
3708382.283,-47,801
3708382.292,-49,801
3708382.292,-32,785
3708382.297,46,722
3708382.297,71,705
3708382.306,74,704
3708382.306,57,719
3708382.314,-21,783
3708382.314,-46,801
3708382.324,-48,801
3708382.324,-31,787
3708382.331,48,723
3708382.331,72,704
3708382.339,74,705
3708382.339,56,719
3708382.348,-21,783
3708382.348,-47,801
3708382.353,-49,802
3708382.353,-33,786
3708382.362,46,723
3708382.362,73,706
3708382.371,72,706
3708382.371,56,721
3708382.38,-22,784
3708382.38,-46,802
3708382.385,-49,803
3708382.385,-32,788
3708382.417,49,724
3708382.417,73,706
3708382.431,73,707
3708382.431,55,721
3708382.431,-22,785
3708382.431,-47,803
3708382.433,-48,802
3708382.433,-29,787
3708382.435,50,724
3708382.435,72,707
3708382.443,75,707
3708382.443,57,723
3708382.443,-22,786
3708382.443,-46,803
3708382.45,-46,803
3708382.45,-30,788
3708382.457,49,725
3708382.457,73,709
3708382.475,72,709
3708382.475,56,723
3708382.475,-21,787
3708382.475,-47,805
3708382.484,-49,805
3708382.484,-30,790
3708382.491,46,726
3708382.491,70,709
3708382.499,72,709
3708382.499,56,725
3708382.507,-24,788
3708382.507,-49,804
3708382.514,-48,805
3708382.514,-31,791
3708382.523,46,727
3708382.523,70,708
3708382.542,72,708
3708382.542,55,723
3708382.542,-26,786
3708382.542,-49,803
3708382.547,-50,804
3708382.547,-33,790
3708382.558,46,725
3708382.558,72,708
3708382.561,72,708
3708382.561,56,723
3708382.574,-22,786
3708382.574,-48,803
3708382.579,-50,804
3708382.579,-31,788
3708382.586,45,725
3708382.586,71,708
3708382.596,72,707
3708382.596,54,722
3708382.604,-24,786
3708382.604,-48,804
3708382.609,-48,804
3708382.609,-31,789
3708382.619,49,725
3708382.619,73,708
3708382.628,72,708
3708382.628,55,723
3708382.634,-22,786
3708382.634,-47,803
3708382.647,-48,804
3708382.647,-33,788
3708382.651,49,726
3708382.651,72,708
3708382.66,72,709
3708382.66,56,724
3708382.679,-22,787
3708382.679,-47,804
3708382.679,-48,804
3708382.679,-32,789
3708382.684,47,725
3708382.684,73,708
3708382.69,73,708
3708382.69,56,722
3708382.716,-22,786
3708382.716,-47,804
3708382.73,-48,804
3708382.73,-31,788
3708382.733,47,726
3708382.733,73,707
3708382.733,75,708
3708382.733,56,722
3708382.735,-23,787
3708382.735,-47,805
3708382.738,-46,804
3708382.738,-30,789
3708382.747,47,726
3708382.747,71,708
3708382.756,75,708
3708382.756,58,723
3708382.764,-22,786
3708382.764,-49,804
3708382.769,-48,804
3708382.769,-32,789
3708382.778,46,726
3708382.778,72,708
3708382.788,73,708
3708382.788,56,723
3708382.795,-23,786
3708382.795,-48,804
3708382.806,-48,804
3708382.806,-32,789
3708382.812,45,725
3708382.812,72,708
3708382.821,74,706
3708382.821,56,722
3708382.827,-24,785
3708382.827,-47,803
3708382.836,-48,803
3708382.836,-30,788
3708382.844,48,724
3708382.844,73,707
3708382.85,74,707
3708382.85,56,722
3708382.859,-22,785
3708382.859,-47,803
3708382.868,-48,803
3708382.868,-31,787
3708382.874,48,723
3708382.874,72,706
3708382.883,72,704
3708382.883,56,718
3708382.892,-22,782
3708382.892,-48,798
3708382.898,-49,797
3708382.898,-30,782
3708382.907,47,719
3708382.907,72,701
3708382.916,74,701
3708382.916,56,716
3708382.925,-23,780
3708382.925,-49,798
3708382.931,-49,797
3708382.931,-33,782
3708382.94,44,718
3708382.94,71,701
3708382.949,73,701
3708382.949,56,717
3708382.954,-22,780
3708382.954,-48,797
3708382.965,-49,797
3708382.965,-32,782
3708382.971,48,718
3708382.971,73,702
3708382.99,73,702
3708382.99,56,716
3708382.99,-22,779
3708382.99,-48,797
3708383.018,-49,797
3708383.018,-30,782
3708383.03,46,719
3708383.03,72,701
3708383.032,74,701
3708383.032,58,716
3708383.033,-22,779
3708383.033,-47,796
3708383.038,-48,798
3708383.038,-32,783
3708383.04,48,719
3708383.04,72,701
3708383.042,72,701
3708383.042,55,717
3708383.053,-23,781
3708383.053,-47,797
3708383.059,-49,796
3708383.059,-30,781
3708383.068,46,718
3708383.068,70,700
3708383.074,72,700
3708383.074,53,714
3708383.083,-26,777
3708383.083,-50,795
3708383.096,-49,795
3708383.096,-34,779
3708383.098,43,716
3708383.098,68,699
3708383.106,71,699
3708383.106,54,714
3708383.116,-25,778
3708383.116,-52,796
3708383.135,-52,795
3708383.135,-34,780
3708383.135,45,717
3708383.135,70,699
3708383.138,70,699
3708383.138,53,715
3708383.151,-25,777
3708383.151,-49,795
3708383.155,-53,795
3708383.155,-36,779
3708383.162,42,717
3708383.162,69,699
3708383.171,70,698
3708383.171,53,713
3708383.178,-26,777
3708383.178,-50,795
3708383.186,-51,795
3708383.186,-35,780
3708383.195,45,716
3708383.195,69,699
3708383.204,69,699
3708383.204,53,713
3708383.211,-26,777
3708383.211,-51,794
3708383.221,-52,794
3708383.221,-34,780
3708383.228,43,717
3708383.228,70,700
3708383.234,71,699
3708383.234,53,715
3708383.243,-27,779
3708383.243,-51,797
3708383.262,-50,796
3708383.262,-33,782
3708383.262,43,718
3708383.262,69,700
3708383.267,70,701
3708383.267,51,715
3708383.276,-26,779
3708383.276,-50,796
3708383.282,-51,796
3708383.282,-34,781
3708383.292,44,717
3708383.292,68,700
3708383.317,68,700
3708383.317,52,714
3708383.342,-26,779
3708383.342,-50,796
3708383.356,-51,795
3708383.356,-34,781
3708383.358,44,717
3708383.358,69,700
3708383.359,70,700
3708383.359,53,716
3708383.36,-26,779
3708383.36,-51,796
3708383.364,-52,797
3708383.364,-35,781
3708383.364,44,717
3708383.364,68,700
3708383.364,72,700
3708383.364,53,715
3708383.372,-26,778
3708383.372,-52,797
3708383.38,-52,797
3708383.38,-33,783
3708383.387,45,719
3708383.387,69,702
3708383.396,70,700
3708383.396,51,715
3708383.413,-24,780
3708383.413,-49,797
3708383.413,-51,797
3708383.413,-34,782
3708383.417,46,719
3708383.417,69,701
3708383.426,71,701
3708383.426,53,716
3708383.435,-26,780
3708383.435,-51,797
3708383.442,-51,797
3708383.442,-34,781
3708383.45,46,717
3708383.45,72,701
3708383.459,71,701
3708383.459,53,716
3708383.468,-24,780
3708383.468,-51,797
3708383.474,-51,797
3708383.474,-33,782
3708383.483,44,718
3708383.483,70,701
3708383.492,70,701
3708383.492,54,716
3708383.5,-25,781
3708383.5,-51,798
3708383.505,-50,798
3708383.505,-32,782
3708383.525,43,719
3708383.526,67,702
3708383.526,68,701
3708383.526,52,716
3708383.532,-26,780
3708383.532,-51,797
3708383.551,-52,796
3708383.551,-36,781
3708383.551,42,717
3708383.551,68,698
3708383.553,68,697
3708383.553,50,712
3708383.563,-27,776
3708383.563,-50,793
3708383.572,-52,794
3708383.572,-37,779
3708383.579,42,715
3708383.579,68,697
3708383.587,70,697
3708383.587,52,712
3708383.596,-27,776
3708383.596,-50,794
3708383.617,-53,793
3708383.617,-36,778
3708383.63,42,715
3708383.63,68,697
3708383.631,69,698
3708383.631,52,713
3708383.634,-27,776
3708383.634,-51,793
3708383.636,-52,794
3708383.636,-35,778
3708383.644,42,714
3708383.644,67,698
3708383.65,66,697
3708383.65,49,712
3708383.661,-28,776
3708383.661,-53,794
3708383.668,-55,794
3708383.668,-37,779
3708383.677,42,715
3708383.677,66,698
3708383.683,67,697
3708383.683,50,711
3708383.702,-27,774
3708383.702,-51,793
3708383.702,-52,793
3708383.702,-35,778
3708383.708,43,714
3708383.708,69,696
3708383.714,69,696
3708383.714,51,710
3708383.723,-26,774
3708383.723,-54,792
3708383.731,-53,793
3708383.731,-36,777
3708383.737,42,714
3708383.737,66,696
3708383.746,67,695
3708383.746,51,709
3708383.756,-29,773
3708383.756,-51,791
3708383.765,-53,792
3708383.765,-36,776
3708383.771,44,712
3708383.771,67,695
3708383.78,69,694
3708383.78,52,709
3708383.789,-28,774
3708383.789,-52,792
3708383.794,-52,791
3708383.794,-36,777
3708383.803,43,714
3708383.803,67,696
3708383.823,69,696
3708383.823,52,711
3708383.823,-26,775
3708383.823,-51,792
3708383.828,-54,793
3708383.828,-36,778
3708383.839,42,713
3708383.839,66,695
3708383.842,68,695
3708383.842,52,711
3708383.858,-27,774
3708383.858,-52,792
3708383.858,-56,793
3708383.858,-36,777
3708383.868,43,713
3708383.868,68,696
3708383.874,67,696
3708383.874,51,711
3708383.883,-28,774
3708383.883,-53,792
3708383.892,-54,792
3708383.892,-36,777
3708383.921,40,713
3708383.921,64,696
3708383.931,66,695
3708383.931,50,710
3708383.932,-28,773
3708383.932,-53,791
3708383.934,-54,790
3708383.934,-39,775
3708383.935,43,713
3708383.935,69,695
3708383.94,69,694
3708383.94,51,711
3708383.946,-29,773
3708383.946,-53,792
3708383.955,-55,793
3708383.955,-36,778
3708383.974,42,714
3708383.974,66,696
3708383.974,69,696
3708383.974,49,710
3708383.977,-28,774
3708383.977,-51,792
3708383.987,-53,792
3708383.987,-38,777
3708383.996,43,712
3708383.996,67,695
3708384.002,66,695
3708384.002,48,710
3708384.013,-28,774
3708384.013,-52,791
3708384.019,-54,790
3708384.019,-35,775
3708384.027,42,712
3708384.027,67,694
3708384.034,70,694
3708384.034,51,708
3708384.042,-26,773
3708384.043,-52,791
3708384.051,-53,790
3708384.051,-35,775
3708384.059,44,711
3708384.059,69,694
3708384.066,69,694
3708384.066,52,709
3708384.075,-28,773
3708384.075,-52,790
3708384.093,-52,790
3708384.093,-36,776
3708384.094,42,713
3708384.094,66,695
3708384.098,67,694
3708384.098,51,709
3708384.115,-25,773
3708384.115,-51,790
3708384.115,-53,790
3708384.115,-36,775
3708384.123,42,713
3708384.123,68,696
3708384.132,69,694
3708384.132,53,708
3708384.138,-25,772
3708384.138,-49,790
3708384.146,-52,791
3708384.146,-36,776
3708384.155,42,712
3708384.155,68,694
3708384.164,69,693
3708384.164,53,708
3708384.17,-26,773
3708384.17,-50,791
3708384.188,-51,790
3708384.188,-34,774
3708384.188,43,710
3708384.188,67,694
3708384.194,69,694
3708384.194,52,707
3708384.217,-27,770
3708384.217,-53,788
3708384.23,-54,787
3708384.23,-36,771
3708384.232,41,707
3708384.232,67,688
3708384.236,69,686
3708384.236,50,701
3708384.237,-26,764
3708384.237,-51,781
3708384.253,-54,782
3708384.253,-36,767
3708384.253,42,704
3708384.253,65,686
3708384.257,68,685
3708384.257,51,700
3708384.268,-28,764
3708384.268,-53,781
3708384.276,-55,782
3708384.276,-35,767
3708384.282,44,703
3708384.282,66,685
3708384.291,69,686
3708384.291,51,701
3708384.304,-30,765
3708384.304,-53,782
3708384.306,-52,782
3708384.306,-36,767
3708384.314,40,703
3708384.314,65,686
3708384.328,66,685
3708384.328,48,700
3708384.33,-30,763
3708384.33,-55,781
3708384.344,-57,781
3708384.344,-38,766
3708384.346,40,703
3708384.346,63,685
3708384.354,63,686
3708384.354,46,700
3708384.363,-30,763
3708384.363,-55,781
3708384.381,-57,782
3708384.381,-39,766
3708384.381,40,702
3708384.381,64,686
3708384.388,65,685
3708384.388,49,700
3708384.395,-29,763
3708384.395,-54,780
3708384.403,-56,781
3708384.403,-37,766
3708384.422,39,702
3708384.422,65,686
3708384.422,67,685
3708384.422,52,700
3708384.428,-28,764
3708384.428,-54,782
3708384.435,-54,782
3708384.435,-37,766
3708384.446,41,702
3708384.446,68,684
3708384.451,66,685
3708384.451,48,700
3708384.457,-28,764
3708384.457,-53,781
3708384.466,-54,781
3708384.466,-37,766
3708384.475,41,703
3708384.475,64,686
3708384.484,65,685
3708384.484,48,700
3708384.491,-29,763
3708384.491,-55,781
3708384.518,-55,781
3708384.518,-36,766
3708384.53,41,702
3708384.53,65,686
3708384.532,66,685
3708384.532,48,700
3708384.533,-28,764
3708384.533,-54,781
3708384.535,-57,782
3708384.535,-38,766
3708384.54,41,702
3708384.54,64,685
3708384.547,66,685
3708384.547,49,700
3708384.556,-30,763
3708384.556,-55,781
3708384.562,-54,780
3708384.562,-36,766
3708384.572,42,703
3708384.572,65,686
3708384.579,67,685
3708384.579,51,700
3708384.588,-27,763
3708384.588,-54,781
3708384.617,-54,781
3708384.617,-38,766
3708384.62,40,702
3708384.62,67,685
3708384.621,67,685
3708384.621,47,699
3708384.621,-28,763
3708384.621,-53,781
3708384.626,-55,782
3708384.626,-39,766
3708384.635,40,703
3708384.635,66,685
3708384.654,66,687
3708384.654,49,701
3708384.654,-30,765
3708384.654,-53,784
3708384.658,-54,783
3708384.658,-39,767
3708384.666,41,704
3708384.666,66,686
3708384.675,68,685
3708384.675,47,700
3708384.694,-31,764
3708384.694,-55,782
3708384.694,-56,781
3708384.694,-39,766
3708384.698,41,703
3708384.698,64,686
3708384.715,65,685
3708384.715,50,700
3708384.715,-29,763
3708384.715,-54,781
3708384.723,-54,782
3708384.723,-38,766
3708384.73,42,702
3708384.73,64,685
3708384.739,66,685
3708384.739,50,700
3708384.748,-29,763
3708384.748,-54,781
3708384.754,-55,782
3708384.754,-38,767
3708384.763,42,703
3708384.763,65,685
3708384.772,66,685
3708384.772,48,701
3708384.781,-27,764
3708384.781,-53,782
3708384.785,-55,783
3708384.785,-38,766
3708384.816,39,703
3708384.816,64,686
3708384.83,64,687
3708384.83,49,701
3708384.831,-29,764
3708384.831,-55,782
3708384.833,-56,782
3708384.833,-39,767
3708384.835,39,703
3708384.835,63,686
3708384.838,66,687
3708384.838,48,702
3708384.844,-30,764
3708384.844,-54,781
3708384.853,-57,783
3708384.853,-39,768
3708384.86,41,704
3708384.86,63,687
3708384.87,64,686
3708384.87,47,701
3708384.876,-30,765
3708384.876,-55,781
3708384.883,-57,782
3708384.883,-40,767
3708384.89,37,703
3708384.89,63,686
3708384.899,65,685
3708384.899,47,700
3708384.907,-33,764
3708384.907,-56,781
3708384.914,-56,781
3708384.914,-39,767
3708384.923,38,703
3708384.923,62,686
3708384.941,63,685
3708384.941,47,700
3708384.941,-32,765
3708384.941,-56,782
3708384.948,-57,782
3708384.948,-39,768
3708384.957,39,705
3708384.957,63,688
3708384.963,64,688
3708384.963,46,702
3708384.981,-31,766
3708384.981,-56,783
3708384.981,-56,783
3708384.981,-41,768
3708384.987,37,704
3708384.987,62,687
3708384.993,64,686
3708384.993,46,699
3708385.003,-33,762
3708385.003,-56,779
3708385.012,-55,780
3708385.012,-37,765
3708385.019,39,702
3708385.019,63,684
3708385.027,64,683
3708385.027,47,698
3708385.035,-31,761
3708385.035,-57,779
3708385.046,-57,779
3708385.046,-40,764
3708385.05,35,701
3708385.05,61,684
3708385.059,62,683
3708385.059,45,697
3708385.078,-32,762
3708385.078,-57,780
3708385.078,-59,779
3708385.078,-42,765
3708385.084,36,702
3708385.084,63,684
3708385.09,63,683
3708385.09,46,699
3708385.117,-33,763
3708385.117,-56,781
3708385.131,-56,782
3708385.131,-42,765
3708385.132,37,702
3708385.132,62,685
3708385.133,64,684
3708385.133,49,699
3708385.136,-31,762
3708385.136,-57,781
3708385.138,-58,780
3708385.138,-40,765
3708385.147,36,701
3708385.147,61,684
3708385.155,64,684
3708385.155,47,699
3708385.163,-33,763
3708385.163,-58,780
3708385.17,-58,780
3708385.17,-42,764
3708385.179,36,701
3708385.179,62,684
3708385.187,63,684
3708385.187,45,698
3708385.195,-34,762
3708385.195,-55,780
3708385.203,-56,780
3708385.203,-41,765
3708385.221,36,703
3708385.221,61,685
3708385.221,64,683
3708385.221,47,699
3708385.228,-34,762
3708385.228,-58,780
3708385.237,-56,781
3708385.237,-41,765
3708385.242,38,702
3708385.242,62,684
3708385.261,63,684
3708385.261,46,699
3708385.261,-33,762
3708385.261,-56,779
3708385.268,-55,780
3708385.268,-42,765
3708385.274,36,700
3708385.274,63,682
3708385.284,64,683
3708385.284,47,697
3708385.293,-33,760
3708385.293,-55,778
3708385.3,-57,778
3708385.3,-41,762
3708385.31,39,699
3708385.31,63,682
3708385.316,64,682
3708385.316,48,697
3708385.325,-30,761
3708385.325,-56,779
3708385.331,-56,779
3708385.331,-40,765
3708385.339,38,702
3708385.339,63,683
3708385.348,63,682
3708385.348,45,697
3708385.357,-32,761
3708385.357,-56,779
3708385.363,-56,778
3708385.363,-39,764
3708385.382,37,700
3708385.382,63,682
3708385.382,63,682
3708385.382,47,697
3708385.388,-31,761
3708385.388,-55,779
3708385.417,-56,778
3708385.417,-38,763
3708385.43,40,699
3708385.43,63,684
3708385.431,63,683
3708385.431,46,699
3708385.432,-31,762
3708385.432,-55,779
3708385.437,-56,780
3708385.437,-39,765
3708385.44,39,702
3708385.44,64,684
3708385.441,66,684
3708385.441,48,699
3708385.454,-30,763
3708385.454,-55,779
3708385.458,-57,779
3708385.458,-38,765
3708385.467,39,701
3708385.467,63,684
3708385.475,65,684
3708385.475,48,700
3708385.484,-32,763
3708385.484,-56,781
3708385.491,-56,780
3708385.491,-37,764
3708385.499,38,700
3708385.499,63,683
3708385.513,65,682
3708385.513,49,696
3708385.516,-31,759
3708385.516,-54,774
3708385.522,-55,775
3708385.522,-39,759
3708385.542,38,696
3708385.542,64,679
3708385.542,66,678
3708385.542,47,693
3708385.547,-33,757
3708385.547,-56,774
3708385.554,-54,774
3708385.554,-40,759
3708385.566,39,695
3708385.566,64,679
3708385.572,66,678
3708385.572,46,692
3708385.579,-33,755
3708385.579,-60,773
3708385.586,-61,774
3708385.586,-43,760
3708385.595,37,695
3708385.595,62,678
3708385.604,62,677
3708385.604,45,693
3708385.611,-33,756
3708385.611,-57,774
3708385.619,-58,774
3708385.619,-42,759
3708385.628,36,696
3708385.628,60,679
3708385.634,63,678
3708385.634,47,693
3708385.645,-34,756
3708385.645,-57,774
3708385.652,-58,774
3708385.652,-41,759
3708385.666,36,696
3708385.666,61,678
3708385.669,62,677
3708385.669,46,692
3708385.675,-32,755
3708385.675,-56,773
3708385.694,-58,774
3708385.694,-42,759
3708385.694,39,695
3708385.694,62,678
3708385.717,63,678
3708385.717,44,693
3708385.73,-33,756
3708385.73,-57,774
3708385.732,-58,774
3708385.732,-40,759
3708385.733,36,695
3708385.733,59,678
3708385.736,62,677
3708385.736,45,692
3708385.737,-32,756
3708385.737,-57,774
3708385.751,-59,774
3708385.751,-43,759
3708385.755,35,696
3708385.755,60,678
3708385.763,62,678
3708385.763,47,693
3708385.772,-33,757
3708385.772,-57,775
3708385.781,-59,775
3708385.781,-41,760
3708385.787,37,695
3708385.787,60,678
3708385.796,62,678
3708385.796,45,693
3708385.815,-32,756
3708385.815,-56,773
3708385.815,-58,774
3708385.815,-42,759
3708385.818,36,696
3708385.818,62,678
3708385.83,62,678
3708385.83,45,693
3708385.834,-34,757
3708385.834,-57,774
3708385.843,-57,774
3708385.843,-41,759
3708385.852,36,696
3708385.852,61,678
3708385.858,62,677
3708385.858,46,692
3708385.866,-32,756
3708385.866,-58,774
3708385.896,-58,775
3708385.896,-39,759
3708385.897,36,696
3708385.897,61,679
3708385.898,63,679
3708385.898,44,694
3708385.899,-33,758
3708385.9,-57,775
3708385.911,-57,776
3708385.911,-39,760
3708385.915,38,695
3708385.915,63,677
3708385.922,64,676
3708385.922,47,690
3708385.941,-30,752
3708385.941,-55,769
3708385.941,-56,770
3708385.941,-38,755
3708385.948,37,691
3708385.948,62,673
3708385.956,64,674
3708385.956,46,688
3708385.964,-31,751
3708385.964,-56,768
3708385.971,-57,768
3708385.971,-41,753
3708385.978,37,689
3708385.978,62,673
3708385.987,63,672
3708385.987,47,688
3708385.995,-30,751
3708385.995,-57,768
3708386.017,-58,769
3708386.017,-41,754
3708386.031,37,690
3708386.031,62,673
3708386.032,64,673
3708386.032,45,690
3708386.035,-32,753
3708386.035,-56,769
3708386.037,-57,770
3708386.037,-40,755
3708386.045,38,691
3708386.045,62,673
3708386.05,64,673
3708386.05,46,688
3708386.059,-32,751
3708386.059,-56,769
3708386.07,-57,769
3708386.07,-41,754
3708386.074,37,690
3708386.074,62,673
3708386.083,64,672
3708386.083,45,687
3708386.103,-34,751
3708386.103,-57,768
3708386.103,-58,768
3708386.103,-41,754
3708386.108,38,689
3708386.108,63,673
3708386.114,65,673
3708386.114,47,687
3708386.123,-31,751
3708386.123,-58,769
3708386.132,-59,769
3708386.132,-41,754
3708386.138,38,690
3708386.138,64,672
3708386.147,63,673
3708386.147,45,688
3708386.158,-31,752
3708386.158,-58,769
3708386.166,-57,769
3708386.166,-42,754
3708386.171,37,690
3708386.171,62,673
3708386.179,64,672
3708386.179,46,687
3708386.188,-32,752
3708386.188,-57,768
3708386.195,-57,769
3708386.195,-38,754
3708386.203,38,691
3708386.203,63,674
3708386.217,64,672
3708386.217,46,687
3708386.222,-32,751
3708386.222,-56,768
3708386.226,-56,768
3708386.226,-39,753
3708386.237,41,689
3708386.237,62,671
3708386.244,63,671
3708386.244,48,686
3708386.25,-30,750
3708386.25,-55,768
3708386.26,-58,767
3708386.26,-40,752
3708386.268,38,689
3708386.268,64,671
3708386.275,65,670
3708386.275,48,686
3708386.283,-31,750
3708386.283,-54,768
3708386.291,-57,768
3708386.291,-40,753
3708386.32,38,689
3708386.32,63,672
3708386.33,66,672
3708386.33,47,687
3708386.332,-31,750
3708386.332,-56,768
3708386.333,-57,769
3708386.333,-40,753
3708386.334,38,690
3708386.334,62,673
3708386.339,63,673
3708386.339,49,688
3708386.358,-30,751
3708386.358,-56,769
3708386.358,-57,768
3708386.358,-39,753
3708386.363,39,690
3708386.363,64,673
3708386.369,66,672
3708386.369,50,687
3708386.378,-30,752
3708386.378,-54,769
3708386.398,-54,769
3708386.398,-37,754
3708386.398,42,690
3708386.398,66,672
3708386.405,66,672
3708386.405,48,687
3708386.411,-30,751
3708386.411,-55,769
3708386.43,-55,769
3708386.43,-38,753
3708386.43,38,690
3708386.43,65,673
3708386.436,65,672
3708386.436,47,687
3708386.445,-30,751
3708386.445,-54,769
3708386.45,-55,768
3708386.45,-37,752
3708386.459,40,690
3708386.459,65,673
3708386.468,67,673
3708386.468,49,688
3708386.474,-30,751
3708386.474,-54,768
3708386.483,-56,768
3708386.483,-39,753
3708386.502,39,690
3708386.502,64,672
3708386.502,64,671
3708386.502,47,687
3708386.507,-29,750
3708386.507,-54,767
3708386.515,-56,768
3708386.515,-38,753
3708386.523,40,689
3708386.523,64,672
3708386.542,66,671
3708386.542,48,686
3708386.542,-29,750
3708386.542,-55,767
3708386.548,-56,768
3708386.548,-37,753
3708386.554,40,689
3708386.554,65,672
3708386.563,66,671
3708386.563,50,687
3708386.572,-28,751
3708386.572,-54,768
3708386.577,-55,768
3708386.577,-36,753
3708386.586,40,690
3708386.586,65,673
3708386.616,66,672
3708386.616,49,688
3708386.63,-30,751
3708386.63,-54,769
3708386.631,-54,770
3708386.631,-39,755
3708386.633,40,690
3708386.633,64,672
3708386.635,66,673
3708386.635,49,687
3708386.638,-29,751
3708386.638,-52,769
3708386.643,-56,769
3708386.643,-38,755
3708386.662,41,690
3708386.662,67,673
3708386.662,66,673
3708386.662,50,688
3708386.668,-27,750
3708386.668,-54,768
3708386.675,-55,769
3708386.675,-39,754
3708386.683,41,690
3708386.683,65,673
3708386.692,65,672
3708386.692,46,686
3708386.699,-34,751
3708386.699,-57,768
3708386.707,-60,768
3708386.707,-42,754
3708386.716,36,690
3708386.716,63,674
3708386.724,64,674
3708386.724,45,689
3708386.731,-33,752
3708386.731,-57,770
3708386.739,-58,769
3708386.739,-41,754
3708386.748,37,689
3708386.748,62,673
3708386.754,62,673
3708386.754,46,687
3708386.765,-32,751
3708386.765,-58,769
3708386.772,-59,768
3708386.772,-41,752
3708386.782,36,688
3708386.782,61,672
3708386.788,63,672
3708386.788,46,687
3708386.797,-33,750
3708386.797,-58,767
3708386.815,-57,768
3708386.815,-40,752
3708386.815,37,689
3708386.815,62,672
3708386.817,63,671
3708386.817,46,686
3708386.826,-31,750
3708386.826,-56,768
3708386.835,-57,768
3708386.835,-39,753
3708386.845,39,689
3708386.845,63,672
3708386.851,63,672
3708386.851,45,687
3708386.86,-33,751
3708386.86,-59,768
3708386.867,-59,768
3708386.867,-40,752
3708386.874,37,690
3708386.874,62,674
3708386.883,64,673
3708386.883,45,687
3708386.891,-31,751
3708386.891,-55,769
3708386.917,-56,768
3708386.917,-40,753
3708386.93,38,689
3708386.93,63,673
3708386.932,64,674
3708386.932,45,688
3708386.933,-32,751
3708386.933,-55,769
3708386.933,-55,769
3708386.933,-41,754
3708386.943,38,690
3708386.943,62,672
3708386.947,64,672
3708386.947,46,687
3708386.956,-34,751
3708386.956,-57,770
3708386.961,-56,769
3708386.961,-40,755
3708386.969,38,691
3708386.969,63,672
3708386.978,64,672
3708386.978,47,688
3708386.988,-30,752
3708386.988,-55,768
3708386.995,-54,769
3708386.995,-38,755
3708387.004,38,691
3708387.004,63,673
3708387.012,65,673
3708387.012,49,688
3708387.022,-29,752
3708387.023,-55,770
3708387.026,-56,770
3708387.026,-39,755
3708387.035,40,692
3708387.035,64,675
3708387.044,64,673
3708387.044,47,689
3708387.05,-29,754
3708387.05,-54,771
3708387.059,-55,771
3708387.059,-41,756
3708387.073,36,692
3708387.073,60,675
3708387.079,63,675
3708387.079,44,690
3708387.082,-32,754
3708387.082,-55,772
3708387.094,-57,773
3708387.094,-40,757
3708387.098,36,694
3708387.098,62,676
3708387.107,63,675
3708387.107,47,690
3708387.116,-33,755
3708387.116,-59,773
3708387.121,-56,772
3708387.121,-39,757
3708387.129,37,694
3708387.129,62,676
3708387.141,63,675
3708387.141,47,690
3708387.15,-31,754
3708387.15,-56,772
3708387.179,-57,772
3708387.179,-40,757
3708387.18,39,693
3708387.18,65,676
3708387.181,63,675
3708387.181,45,690
3708387.182,-30,754
3708387.182,-56,772
3708387.189,-58,772
3708387.189,-41,757
3708387.194,37,694
3708387.194,60,675
3708387.218,61,676
3708387.218,45,690
3708387.23,-32,754
3708387.23,-55,771
3708387.232,-55,772
3708387.232,-40,757
3708387.234,37,693
3708387.234,62,675
3708387.237,62,675
3708387.237,46,690
3708387.242,-32,753
3708387.242,-55,771
3708387.251,-58,771
3708387.251,-39,756
3708387.261,38,692
3708387.261,62,675
3708387.267,62,675
3708387.267,46,690
3708387.273,-32,753
3708387.273,-59,770
3708387.283,-58,770
3708387.283,-40,755
3708387.292,38,692
3708387.292,62,674
3708387.298,64,675
3708387.298,46,689
3708387.307,-32,753
3708387.307,-58,771
3708387.315,-59,770
3708387.315,-42,755
3708387.324,37,692
3708387.324,64,674
3708387.33,64,673
3708387.33,45,689
3708387.341,-32,753
3708387.341,-56,769
3708387.348,-58,770
3708387.348,-40,755
3708387.356,37,691
3708387.356,62,674
3708387.363,63,674
3708387.363,46,689
3708387.377,-32,754
3708387.377,-56,771
3708387.379,-57,770
3708387.379,-39,755
3708387.387,38,692
3708387.387,62,673
3708387.396,63,673
3708387.396,46,689
3708387.402,-31,753
3708387.402,-55,771
3708387.411,-56,771
3708387.411,-39,756
3708387.419,38,694
3708387.419,63,678
3708387.428,64,678
3708387.428,46,693
3708387.435,-32,757
3708387.435,-54,774
3708387.442,-57,775
3708387.442,-39,760
3708387.451,37,696
3708387.451,62,679
3708387.46,64,678
3708387.46,47,693
3708387.467,-32,756
3708387.467,-55,773
3708387.476,-55,773
3708387.476,-38,760
3708387.495,38,696
3708387.495,64,679
3708387.495,63,679
3708387.495,49,693
3708387.516,-29,756
3708387.516,-54,774
3708387.53,-56,775
3708387.53,-39,759
3708387.531,40,697
3708387.531,65,679
3708387.534,64,679
3708387.534,48,693
3708387.537,-29,757
3708387.537,-55,775
3708387.538,-56,776
3708387.538,-37,760
3708387.552,39,696
3708387.552,63,679
3708387.558,65,679
3708387.558,48,693
3708387.563,-31,758
3708387.563,-55,775
3708387.572,-56,774
3708387.572,-39,760
3708387.577,39,697
3708387.577,64,680
3708387.588,65,679
3708387.588,46,694
3708387.595,-32,757
3708387.595,-56,776
3708387.603,-56,776
3708387.603,-40,761
3708387.61,39,698
3708387.61,63,680
3708387.62,64,679
3708387.62,47,695
3708387.629,-32,759
3708387.629,-57,776
3708387.636,-57,776
3708387.636,-39,762
3708387.643,39,697
3708387.643,64,679
3708387.661,66,679
3708387.662,46,695
3708387.662,-31,759
3708387.662,-55,776
3708387.668,-55,776
3708387.668,-38,762
3708387.674,38,698
3708387.674,63,680
3708387.683,65,680
3708387.683,49,695
3708387.692,-29,759
3708387.692,-56,776
3708387.698,-57,776
3708387.698,-39,761
3708387.707,41,698
3708387.707,63,680
3708387.716,62,679
3708387.716,46,694
3708387.723,-32,757
3708387.723,-57,774
3708387.73,-61,775
3708387.73,-44,760
3708387.739,35,696
3708387.739,61,678
3708387.748,63,678
3708387.748,45,693
3708387.76,-32,756
3708387.76,-58,773
3708387.762,-60,775
3708387.762,-43,760
3708387.774,35,695
3708387.774,58,677
3708387.78,60,677
3708387.78,44,693
3708387.786,-35,757
3708387.786,-60,774
3708387.795,-59,774
3708387.795,-43,759
3708387.816,35,695
3708387.816,59,677
3708387.83,62,678
3708387.83,46,692
3708387.832,-34,756
3708387.832,-59,774
3708387.834,-59,774
3708387.834,-42,759
3708387.837,34,695
3708387.837,59,678
3708387.843,61,677
3708387.843,43,693
3708387.852,-36,756
3708387.852,-60,774
3708387.858,-60,774
3708387.858,-43,759
3708387.867,35,695
3708387.867,59,678
3708387.876,59,677
3708387.876,44,691
3708387.883,-34,756
3708387.883,-62,773
3708387.89,-62,773
3708387.89,-45,759
3708387.898,34,695
3708387.898,58,677
3708387.918,59,678
3708387.918,43,693
3708387.918,-34,756
3708387.918,-59,774
3708387.924,-60,774
3708387.924,-43,759
3708387.931,35,696
3708387.931,59,678
3708387.939,61,679
3708387.939,43,693
3708387.947,-36,757
3708387.947,-59,776
3708387.954,-59,776
3708387.954,-43,761
3708387.963,35,698
3708387.963,60,680
3708387.971,61,680
3708387.971,45,694
3708387.978,-34,759
3708387.978,-63,777
3708387.985,-60,777
3708387.985,-42,761
3708387.995,35,698
3708387.995,60,681
3708388.007,60,681
3708388.007,44,696
3708388.01,-33,759
3708388.01,-59,777
3708388.019,-61,777
3708388.019,-43,761
3708388.028,34,698
3708388.028,59,681
3708388.034,60,681
3708388.034,42,697
3708388.042,-36,760
3708388.042,-59,776
3708388.062,-59,777
3708388.062,-44,762
3708388.062,33,698
3708388.062,59,680
3708388.068,58,679
3708388.068,41,696
3708388.077,-36,759
3708388.077,-59,777
3708388.082,-61,777
3708388.082,-44,762
3708388.094,36,698
3708388.094,62,681
3708388.116,61,680
3708388.116,42,696
3708388.13,-35,759
3708388.13,-60,776
3708388.132,-59,777
3708388.132,-46,763
3708388.134,33,699
3708388.134,58,682
3708388.137,59,681
3708388.137,41,696
3708388.138,-35,760
3708388.138,-62,777
3708388.151,-62,778
3708388.151,-43,762
3708388.154,34,698
3708388.154,60,681
3708388.163,61,680
3708388.163,44,694
3708388.175,-36,758
3708388.175,-57,776
3708388.178,-59,777
3708388.178,-44,762
3708388.187,32,698
3708388.187,60,680
3708388.196,61,681
3708388.196,43,695
3708388.214,-36,759
3708388.214,-61,777
3708388.214,-61,777
3708388.214,-43,762
3708388.217,33,699
3708388.217,58,681
3708388.226,59,679
3708388.226,43,695
3708388.236,-35,759
3708388.236,-58,776
3708388.242,-60,776
3708388.242,-43,760
3708388.251,35,698
3708388.251,60,680
3708388.261,60,681
3708388.261,43,696
3708388.268,-33,759
3708388.268,-58,775
3708388.274,-61,777
3708388.274,-42,764
3708388.283,34,701
3708388.283,59,683
3708388.292,61,685
3708388.292,43,701
3708388.298,-35,766
3708388.298,-59,785
3708388.306,-59,786
3708388.306,-45,771
3708388.324,33,707
3708388.324,58,690
3708388.326,57,691
3708388.326,41,705
3708388.332,-34,768
3708388.332,-60,785
3708388.351,-60,786
3708388.351,-44,771
3708388.351,33,708
3708388.351,58,689
3708388.355,59,689
3708388.355,41,704
3708388.37,-38,768
3708388.37,-61,785
3708388.37,-62,786
3708388.37,-43,772
3708388.379,35,707
3708388.379,56,690
3708388.388,58,689
3708388.388,41,705
3708388.394,-36,768
3708388.394,-61,785
3708388.418,-64,786
3708388.418,-47,770
3708388.43,29,707
3708388.43,54,690
3708388.432,57,689
3708388.432,42,705
3708388.457,-37,768
3708388.457,-63,787
3708388.461,-62,786
3708388.461,-46,770
3708388.461,31,708
3708388.461,58,690
3708388.462,58,689
3708388.462,41,704
3708388.463,-37,768
3708388.463,-62,787
3708388.467,-64,787
3708388.467,-49,771
3708388.475,30,707
3708388.475,56,690
3708388.482,58,690
3708388.482,39,705
3708388.501,-40,768
3708388.501,-65,785
3708388.501,-64,786
3708388.501,-48,771
3708388.509,29,707
3708388.509,56,690
3708388.515,55,689
3708388.515,38,705
3708388.526,-39,768
3708388.526,-65,785
3708388.531,-64,786
3708388.531,-47,771
3708388.538,31,708
3708388.538,56,690
3708388.546,55,689
3708388.546,39,704
3708388.555,-39,769
3708388.555,-63,787
3708388.564,-64,786
3708388.564,-47,771
3708388.57,30,710
3708388.57,54,694
3708388.579,54,696
3708388.579,38,711
3708388.587,-41,777
3708388.587,-64,798
3708388.593,-62,799
3708388.593,-47,787
3708388.61,31,725
3708388.61,54,709
3708388.612,56,709
3708388.612,40,723
3708388.631,-37,786
3708388.631,-62,803
3708388.631,-63,803
3708388.631,-45,788
3708388.637,31,723
3708388.637,57,706
3708388.644,57,706
3708388.644,40,721
3708388.663,-37,785
3708388.663,-63,802
3708388.663,-62,803
3708388.663,-46,787
3708388.668,30,723
3708388.668,56,707
3708388.674,57,706
3708388.674,39,720
3708388.683,-39,784
3708388.683,-62,801
3708388.692,-63,801
3708388.692,-47,786
3708388.717,32,721
3708388.717,56,704
3708388.73,58,704
3708388.73,40,719
3708388.732,-37,783
3708388.732,-61,799
3708388.733,-65,799
3708388.733,-49,785
3708388.737,30,721
3708388.737,56,703
3708388.741,56,703
3708388.741,40,718
3708388.758,-41,782
3708388.758,-62,799
3708388.758,-65,798
3708388.758,-48,784
3708388.763,32,720
3708388.763,56,703
3708388.77,58,703
3708388.77,40,718
3708388.778,-39,782
3708388.778,-63,798
3708388.791,-64,798
3708388.791,-47,783
3708388.795,32,719
3708388.795,54,701
3708388.804,56,702
3708388.804,41,718
3708388.812,-37,781
3708388.812,-63,799
3708388.817,-64,800
3708388.817,-47,785
3708388.826,31,721
3708388.826,57,702
3708388.844,57,702
3708388.844,39,718
3708388.844,-38,783
3708388.844,-64,802
3708388.85,-65,800
3708388.85,-45,786
3708388.859,32,725
3708388.859,57,709
3708388.869,56,709
3708388.869,41,725
3708388.874,-37,790
3708388.874,-64,808
3708388.883,-63,809
3708388.883,-45,793
3708388.902,32,729
3708388.902,56,711
3708388.909,53,711
3708388.909,35,726
3708388.909,-41,790
3708388.909,-64,808
3708388.916,-66,808
3708388.916,-50,792
3708388.922,29,728
3708388.922,52,712
3708388.936,54,711
3708388.936,35,725
3708388.939,-43,788
3708388.939,-67,806
3708388.946,-67,807
3708388.946,-50,792
3708388.955,27,727
3708388.955,52,710
3708388.965,54,709
3708388.965,35,723
3708388.97,-42,787
3708388.97,-65,805
3708388.979,-67,805
3708388.979,-50,791
3708388.988,29,727
3708388.988,53,709
3708388.994,52,708
3708388.994,38,723
3708389.017,-42,786
3708389.017,-66,804
3708389.031,-66,805
3708389.031,-50,790
3708389.032,26,726
3708389.032,51,708
3708389.035,52,707
3708389.035,36,722
3708389.036,-41,786
3708389.036,-66,803
3708389.044,-67,803
3708389.044,-50,788
3708389.061,27,725
3708389.061,53,707
3708389.062,56,708
3708389.062,36,725
3708389.069,-43,788
3708389.069,-67,805
3708389.076,-67,806
3708389.076,-51,793
3708389.082,27,730
3708389.082,52,713
3708389.091,53,712
3708389.091,34,727
3708389.098,-41,790
3708389.098,-66,808
3708389.107,-67,808
3708389.107,-50,793
3708389.115,27,728
3708389.115,52,711
3708389.127,53,711
3708389.127,36,725
3708389.13,-43,789
3708389.13,-67,806
3708389.139,-68,807
3708389.139,-51,792
3708389.148,28,729
3708389.148,52,710
3708389.154,52,711
3708389.154,36,727
3708389.163,-43,791
3708389.163,-65,808
3708389.182,-66,808
3708389.182,-52,793
3708389.182,26,729
3708389.182,53,711
3708389.187,53,711
3708389.187,35,727
3708389.196,-43,790
3708389.196,-65,807
3708389.203,-67,806
3708389.203,-50,792
3708389.215,27,730
3708389.215,54,712
3708389.218,53,711
3708389.218,36,726
3708389.227,-43,789
3708389.227,-67,807
3708389.236,-68,806
3708389.236,-49,791
3708389.241,28,728
3708389.241,51,711
3708389.25,54,710
3708389.25,34,725
3708389.259,-45,789
3708389.259,-67,806
3708389.268,-67,806
3708389.268,-52,792
3708389.274,27,729
3708389.274,52,711
3708389.283,51,710
3708389.283,34,725
3708389.294,-44,788
3708389.294,-67,806
3708389.317,-68,805
3708389.317,-52,790
3708389.331,27,727
3708389.331,52,710
3708389.332,52,710
3708389.332,35,725
3708389.335,-42,788
3708389.335,-67,806
3708389.337,-69,805
3708389.337,-49,790
3708389.338,27,726
3708389.338,53,709
3708389.351,51,709
3708389.351,33,724
3708389.354,-42,788
3708389.354,-65,806
3708389.362,-67,806
3708389.362,-51,790
3708389.374,27,727
3708389.374,52,709
3708389.378,52,708
3708389.378,36,724
3708389.387,-42,786
3708389.387,-68,804
3708389.395,-68,805
3708389.395,-50,790
3708389.405,26,727
3708389.405,50,710
3708389.411,51,709
3708389.411,34,724
3708389.419,-44,787
3708389.419,-67,804
3708389.428,-68,804
3708389.428,-51,788
3708389.434,26,725
3708389.434,51,708
3708389.443,52,708
3708389.443,35,723
3708389.454,-44,787
3708389.454,-67,804
3708389.457,-68,803
3708389.457,-52,789
3708389.466,29,725
3708389.466,55,708
3708389.476,53,708
3708389.476,36,723
3708389.496,-42,786
3708389.496,-67,803
3708389.496,-69,804
3708389.496,-51,788
3708389.499,27,725
3708389.499,52,709
3708389.511,53,708
3708389.511,38,723
3708389.514,-42,786
3708389.514,-67,805
3708389.523,-71,805
3708389.523,-51,790
3708389.531,27,728
3708389.531,52,710
3708389.538,53,709
3708389.538,35,723
3708389.547,-42,788
3708389.547,-66,805
3708389.555,-67,804
3708389.555,-51,789
3708389.564,27,726
3708389.564,54,707
3708389.57,53,707
3708389.57,34,724
3708389.58,-42,787
3708389.58,-68,805
3708389.593,-69,804
3708389.593,-52,790
3708389.595,27,725
3708389.595,52,708
3708389.618,53,708
3708389.618,35,723
3708389.631,-44,786
3708389.631,-69,803
3708389.635,-68,804
3708389.635,-51,788
3708389.638,25,725
3708389.638,52,707
3708389.639,52,707
3708389.639,34,721
3708389.644,-42,785
3708389.644,-69,802
3708389.651,-71,803
3708389.651,-50,789
3708389.659,26,724
3708389.659,50,707
3708389.668,51,707
3708389.668,34,722
3708389.674,-45,785
3708389.674,-70,802
3708389.683,-70,803
3708389.683,-52,787
3708389.691,26,724
3708389.691,51,708
3708389.7,50,707
3708389.7,33,721
3708389.709,-43,784
3708389.709,-68,802
3708389.738,-71,803
3708389.738,-53,786
3708389.739,25,722
3708389.739,51,705
3708389.74,50,706
3708389.74,34,721
3708389.741,-43,784
3708389.741,-69,801
3708389.746,-70,801
3708389.746,-53,786
3708389.755,26,722
3708389.755,50,705
3708389.774,50,705
3708389.774,34,721
3708389.774,-43,783
3708389.774,-68,800
3708389.777,-69,801
3708389.777,-52,786
3708389.79,27,723
3708389.79,50,705
3708389.794,52,704
3708389.794,35,720
3708389.803,-43,783
3708389.803,-70,800
3708389.812,-70,801
3708389.812,-53,786
3708389.818,25,722
3708389.818,51,705
3708389.827,53,704
3708389.827,34,718
3708389.836,-44,782
3708389.836,-68,799
3708389.845,-71,800
3708389.845,-54,785
3708389.851,24,721
3708389.851,49,705
3708389.861,49,703
3708389.861,34,718
3708389.869,-44,783
3708389.869,-69,799
3708389.875,-72,800
3708389.875,-55,785
3708389.884,24,721
3708389.884,48,703
3708389.916,48,703
3708389.916,32,719
3708389.93,-45,782
3708389.93,-71,799
3708389.932,-71,800
3708389.932,-54,785
3708389.934,23,720
3708389.934,50,703
3708389.935,51,702
3708389.935,33,717
3708389.937,-46,782
3708389.937,-71,800
3708389.939,-72,799
3708389.939,-55,784
3708389.951,24,721
3708389.951,49,704
3708389.954,46,704
3708389.954,30,720
3708389.963,-47,782
3708389.963,-72,800
3708389.972,-72,799
3708389.972,-55,783
3708389.977,23,720
3708389.977,48,703
3708389.986,49,702
3708389.986,32,718
3708389.995,-45,781
3708389.995,-69,799
3708390.004,-71,799
3708390.004,-54,785
3708390.01,24,720
3708390.01,48,704
3708390.03,49,704
3708390.03,33,718
3708390.03,-46,782
3708390.03,-70,799
3708390.035,-71,800
3708390.035,-57,785
3708390.045,22,720
3708390.045,48,702
3708390.05,52,702
3708390.05,33,718
3708390.059,-46,782
3708390.059,-70,798
3708390.068,-70,799
3708390.068,-53,785
3708390.074,21,721
3708390.074,47,704
3708390.083,50,703
3708390.083,32,720
3708390.092,-46,782
3708390.092,-70,800
3708390.098,-72,799
3708390.098,-54,784
