# participant_id: Horizontal
# gesture: custom
# trial_number: 1
# stream_name: BioRadio_Configuration
# timestamp: 20260430_095840
# samples: 18349
# duration_sec: 73.407
# nominal_sample_rate: 250.0
# effective_sample_rate: 249.95
#
timestamp,EMG1,GSR2
3708366.472762,32.000000,1.000000
3708366.472766,6.000000,1.000000
3708366.484159,4.000000,1.000000
3708366.484164,20.000000,1.000000
3708366.490458,101.000000,1.000000
3708366.490461,125.000000,1.000000
3708366.516854,127.000000,1.000000
3708366.516859,109.000000,1.000000
3708366.530769,30.000000,1.000000
3708366.530775,5.000000,1.000000
3708366.532051,4.000000,1.000000
3708366.532054,21.000000,1.000000
3708366.533328,99.000000,1.000000
3708366.533331,125.000000,1.000000
3708366.535860,128.000000,1.000000
3708366.535863,110.000000,1.000000
3708366.539420,29.000000,1.000000
3708366.539425,5.000000,1.000000
3708366.549368,6.000000,1.000000
3708366.549380,21.000000,1.000000
3708366.555597,100.000000,1.000000
3708366.555600,125.000000,1.000000
3708366.565657,127.000000,1.000000
3708366.565661,110.000000,1.000000
3708366.571959,30.000000,1.000000
3708366.571964,5.000000,1.000000
3708366.589416,5.000000,1.000000
3708366.589421,21.000000,1.000000
3708366.589427,100.000000,1.000000
3708366.589428,126.000000,1.000000
3708366.593212,126.000000,1.000000
3708366.593218,109.000000,1.000000
3708366.602041,32.000000,1.000000
3708366.602047,6.000000,1.000000
3708366.610913,3.000000,1.000000
3708366.610917,22.000000,1.000000
3708366.629882,100.000000,1.000000
3708366.629888,126.000000,1.000000
3708366.631159,128.000000,1.000000
3708366.631164,111.000000,1.000000
3708366.633700,32.000000,1.000000
3708366.633717,7.000000,1.000000
3708366.642551,7.000000,1.000000
3708366.642557,23.000000,1.000000
3708366.651400,102.000000,1.000000
3708366.651406,127.000000,1.000000
3708366.662499,129.000000,1.000000
3708366.662503,111.000000,1.000000
3708366.666294,33.000000,1.000000
3708366.666300,8.000000,1.000000
3708366.693965,6.000000,1.000000
3708366.693969,24.000000,1.000000
3708366.695235,103.000000,1.000000
3708366.695239,128.000000,1.000000
3708366.696506,130.000000,1.000000
3708366.696512,113.000000,1.000000
3708366.697825,33.000000,1.000000
3708366.697830,6.000000,1.000000
3708366.706757,5.000000,1.000000
3708366.706764,20.000000,1.000000
3708366.715581,100.000000,1.000000
3708366.715587,128.000000,1.000000
3708366.729451,129.000000,1.000000
3708366.729456,112.000000,1.000000
3708366.734512,29.000000,1.000000
3708366.734516,4.000000,1.000000
3708366.737041,4.000000,1.000000
3708366.737048,24.000000,1.000000
3708366.748375,102.000000,1.000000
3708366.748380,126.000000,1.000000
3708366.754671,127.000000,1.000000
3708366.754674,112.000000,1.000000
3708366.760970,32.000000,1.000000
3708366.760976,6.000000,1.000000
3708366.769802,5.000000,1.000000
3708366.769806,22.000000,1.000000
3708366.778629,102.000000,1.000000
3708366.778635,125.000000,1.000000
3708366.787433,126.000000,1.000000
3708366.787439,110.000000,1.000000
3708366.797560,31.000000,1.000000
3708366.797565,7.000000,1.000000
3708366.816455,4.000000,1.000000
3708366.816460,22.000000,1.000000
3708366.830419,102.000000,1.000000
3708366.830425,127.000000,1.000000
3708366.831688,130.000000,1.000000
3708366.831690,112.000000,1.000000
3708366.834214,34.000000,1.000000
3708366.834220,7.000000,1.000000
3708366.835505,5.000000,1.000000
3708366.835508,23.000000,1.000000
3708366.841811,101.000000,1.000000
3708366.841817,126.000000,1.000000
3708366.860711,127.000000,1.000000
3708366.860717,112.000000,1.000000
3708366.860723,33.000000,1.000000
3708366.860724,7.000000,1.000000
3708366.866970,3.000000,1.000000
3708366.866972,21.000000,1.000000
3708366.877072,99.000000,1.000000
3708366.877085,125.000000,1.000000
3708366.883383,125.000000,1.000000
3708366.883388,111.000000,1.000000
3708366.892222,31.000000,1.000000
3708366.892227,4.000000,1.000000
3708366.909808,5.000000,1.000000
3708366.909814,23.000000,1.000000
3708366.909820,103.000000,1.000000
3708366.909826,124.000000,1.000000
3708366.913604,127.000000,1.000000
3708366.913610,109.000000,1.000000
3708366.926301,32.000000,1.000000
3708366.926311,6.000000,1.000000
3708366.932612,3.000000,1.000000
3708366.932616,20.000000,1.000000
3708366.938971,101.000000,1.000000
3708366.938975,126.000000,1.000000
3708366.947769,128.000000,1.000000
3708366.947772,110.000000,1.000000
3708366.954106,30.000000,1.000000
3708366.954115,4.000000,1.000000
3708366.962930,4.000000,1.000000
3708366.962935,22.000000,1.000000
3708366.971779,102.000000,1.000000
3708366.971782,127.000000,1.000000
3708366.980596,128.000000,1.000000
3708366.980603,109.000000,1.000000
3708366.985671,30.000000,1.000000
3708366.985677,3.000000,1.000000
3708366.997006,4.000000,1.000000
3708366.997014,21.000000,1.000000
3708367.003317,98.000000,1.000000
3708367.003321,124.000000,1.000000
3708367.009609,125.000000,1.000000
3708367.009615,108.000000,1.000000
3708367.019711,28.000000,1.000000
3708367.019716,3.000000,1.000000
3708367.033401,3.000000,1.000000
3708367.033405,22.000000,1.000000
3708367.035933,102.000000,1.000000
3708367.035939,127.000000,1.000000
3708367.042229,128.000000,1.000000
3708367.042232,109.000000,1.000000
3708367.051063,30.000000,1.000000
3708367.051067,7.000000,1.000000
3708367.057416,3.000000,1.000000
3708367.057420,21.000000,1.000000
3708367.066239,100.000000,1.000000
3708367.066246,126.000000,1.000000
3708367.075051,127.000000,1.000000
3708367.075055,109.000000,1.000000
3708367.083874,31.000000,1.000000
3708367.083880,7.000000,1.000000
3708367.091458,5.000000,1.000000
3708367.091462,20.000000,1.000000
3708367.115416,99.000000,1.000000
3708367.115421,126.000000,1.000000
3708367.129298,127.000000,1.000000
3708367.129303,109.000000,1.000000
3708367.130570,30.000000,1.000000
3708367.130574,5.000000,1.000000
3708367.133079,6.000000,1.000000
3708367.133085,20.000000,1.000000
3708367.135611,99.000000,1.000000
3708367.135617,125.000000,1.000000
3708367.141928,126.000000,1.000000
3708367.141934,108.000000,1.000000
3708367.148281,30.000000,1.000000
3708367.148286,7.000000,1.000000
3708367.158364,3.000000,1.000000
3708367.158368,22.000000,1.000000
3708367.162154,100.000000,1.000000
3708367.162161,126.000000,1.000000
3708367.170959,125.000000,1.000000
3708367.170962,107.000000,1.000000
3708367.184797,29.000000,1.000000
3708367.184804,3.000000,1.000000
3708367.188497,3.000000,1.000000
3708367.188502,19.000000,1.000000
3708367.194807,99.000000,1.000000
3708367.194813,124.000000,1.000000
3708367.203625,125.000000,1.000000
3708367.203628,108.000000,1.000000
3708367.209927,30.000000,1.000000
3708367.209932,4.000000,1.000000
3708367.218750,4.000000,1.000000
3708367.218754,21.000000,1.000000
3708367.227598,99.000000,1.000000
3708367.227602,124.000000,1.000000
3708367.233901,125.000000,1.000000
3708367.233904,108.000000,1.000000
3708367.242747,30.000000,1.000000
3708367.242752,5.000000,1.000000
3708367.250338,5.000000,1.000000
3708367.250344,22.000000,1.000000
3708367.259153,101.000000,1.000000
3708367.259159,123.000000,1.000000
3708367.265459,125.000000,1.000000
3708367.265461,108.000000,1.000000
3708367.276866,31.000000,1.000000
3708367.276872,6.000000,1.000000
3708367.285702,4.000000,1.000000
3708367.285712,22.000000,1.000000
3708367.290753,100.000000,1.000000
3708367.290758,124.000000,1.000000
3708367.298311,126.000000,1.000000
3708367.298317,109.000000,1.000000
3708367.317252,31.000000,1.000000
3708367.317257,6.000000,1.000000
3708367.317263,3.000000,1.000000
3708367.317264,23.000000,1.000000
3708367.322296,99.000000,1.000000
3708367.322299,125.000000,1.000000
3708367.329839,127.000000,1.000000
3708367.329842,109.000000,1.000000
3708367.338664,30.000000,1.000000
3708367.338668,7.000000,1.000000
3708367.347298,5.000000,1.000000
3708367.347308,22.000000,1.000000
3708367.353599,100.000000,1.000000
3708367.353602,125.000000,1.000000
3708367.362395,126.000000,1.000000
3708367.362398,111.000000,1.000000
3708367.371248,35.000000,1.000000
3708367.371265,6.000000,1.000000
3708367.380069,3.000000,1.000000
3708367.380074,21.000000,1.000000
3708367.386376,99.000000,1.000000
3708367.386378,125.000000,1.000000
3708367.395179,128.000000,1.000000
3708367.395182,111.000000,1.000000
3708367.416637,30.000000,1.000000
3708367.416641,5.000000,1.000000
3708367.430489,5.000000,1.000000
3708367.430493,22.000000,1.000000
3708367.434309,99.000000,1.000000
3708367.434313,124.000000,1.000000
3708367.434319,126.000000,1.000000
3708367.434321,109.000000,1.000000
3708367.435592,31.000000,1.000000
3708367.435596,4.000000,1.000000
3708367.453235,2.000000,1.000000
3708367.453240,19.000000,1.000000
3708367.453246,99.000000,1.000000
3708367.453254,126.000000,1.000000
3708367.457032,125.000000,1.000000
3708367.457035,107.000000,1.000000
3708367.465956,28.000000,1.000000
3708367.465961,4.000000,1.000000
3708367.474785,0.000000,1.000000
3708367.474789,19.000000,1.000000
3708367.483449,98.000000,1.000000
3708367.483457,123.000000,1.000000
3708367.489754,124.000000,1.000000
3708367.489757,109.000000,1.000000
3708367.498541,29.000000,1.000000
3708367.498546,3.000000,1.000000
3708367.507334,1.000000,1.000000
3708367.507338,18.000000,1.000000
3708367.513664,99.000000,1.000000
3708367.513668,124.000000,1.000000
3708367.521214,124.000000,1.000000
3708367.521217,105.000000,1.000000
3708367.530025,29.000000,1.000000
3708367.530033,3.000000,1.000000
3708367.540065,1.000000,1.000000
3708367.540070,17.000000,1.000000
3708367.546379,98.000000,1.000000
3708367.546385,123.000000,1.000000
3708367.555201,123.000000,1.000000
3708367.555204,107.000000,1.000000
3708367.574123,29.000000,1.000000
3708367.574128,5.000000,1.000000
3708367.574134,2.000000,1.000000
3708367.574136,19.000000,1.000000
3708367.577920,98.000000,1.000000
3708367.577926,125.000000,1.000000
3708367.590501,127.000000,1.000000
3708367.590505,109.000000,1.000000
3708367.594332,29.000000,1.000000
3708367.594337,4.000000,1.000000
3708367.601900,1.000000,1.000000
3708367.601905,18.000000,1.000000
3708367.610717,97.000000,1.000000
3708367.610721,124.000000,1.000000
3708367.617014,125.000000,1.000000
3708367.617020,108.000000,1.000000
3708367.625971,29.000000,1.000000
3708367.625978,3.000000,1.000000
3708367.634832,1.000000,1.000000
3708367.634837,16.000000,1.000000
3708367.643662,95.000000,1.000000
3708367.643667,120.000000,1.000000
3708367.649956,123.000000,1.000000
3708367.649959,106.000000,1.000000
3708367.661390,28.000000,1.000000
3708367.661408,3.000000,1.000000
3708367.667712,1.000000,1.000000
3708367.667715,18.000000,1.000000
3708367.672784,97.000000,1.000000
3708367.672788,121.000000,1.000000
3708367.681593,123.000000,1.000000
3708367.681596,107.000000,1.000000
3708367.690405,27.000000,1.000000
3708367.690411,2.000000,1.000000
3708367.715613,0.000000,1.000000
3708367.715622,18.000000,1.000000
3708367.715629,95.000000,1.000000
3708367.715631,121.000000,1.000000
3708367.730763,123.000000,1.000000
3708367.730769,105.000000,1.000000
3708367.732044,26.000000,1.000000
3708367.732049,0.000000,1.000000
3708367.733313,2.000000,1.000000
3708367.733317,18.000000,1.000000
3708367.749802,96.000000,1.000000
3708367.749807,122.000000,1.000000
3708367.749813,125.000000,1.000000
3708367.749815,107.000000,1.000000
3708367.754960,29.000000,1.000000
3708367.754982,1.000000,1.000000
3708367.766337,0.000000,1.000000
3708367.766342,17.000000,1.000000
3708367.770123,96.000000,1.000000
3708367.770129,123.000000,1.000000
3708367.778947,123.000000,1.000000
3708367.778950,104.000000,1.000000
3708367.787805,26.000000,1.000000
3708367.787811,1.000000,1.000000
3708367.794125,-1.000000,1.000000
3708367.794135,16.000000,1.000000
3708367.802945,97.000000,1.000000
3708367.802950,121.000000,1.000000
3708367.810571,124.000000,1.000000
3708367.810574,105.000000,1.000000
3708367.820445,26.000000,1.000000
3708367.820451,0.000000,1.000000
3708367.826750,-1.000000,1.000000
3708367.826756,18.000000,1.000000
3708367.835569,96.000000,1.000000
3708367.835582,122.000000,1.000000
3708367.854523,124.000000,1.000000
3708367.854528,105.000000,1.000000
3708367.854545,26.000000,1.000000
3708367.854547,0.000000,1.000000
3708367.857084,-2.000000,1.000000
3708367.857087,18.000000,1.000000
3708367.867177,97.000000,1.000000
3708367.867181,122.000000,1.000000
3708367.875864,123.000000,1.000000
3708367.875868,107.000000,1.000000
3708367.888450,26.000000,1.000000
3708367.888456,0.000000,1.000000
3708367.890986,-1.000000,1.000000
3708367.890989,18.000000,1.000000
3708367.898539,97.000000,1.000000
3708367.898542,122.000000,1.000000
3708367.907334,123.000000,1.000000
3708367.907338,106.000000,1.000000
3708367.913622,27.000000,1.000000
3708367.913626,2.000000,1.000000
3708367.924967,-1.000000,1.000000
3708367.924984,19.000000,1.000000
3708367.931111,98.000000,1.000000
3708367.931117,121.000000,1.000000
3708367.939926,123.000000,1.000000
3708367.939929,105.000000,1.000000
3708367.946262,28.000000,1.000000
3708367.946269,1.000000,1.000000
3708367.974009,1.000000,1.000000
3708367.974015,18.000000,1.000000
3708367.976544,96.000000,1.000000
3708367.976550,122.000000,1.000000
3708367.977934,122.000000,1.000000
3708367.977941,105.000000,1.000000
3708367.979207,26.000000,1.000000
3708367.979223,0.000000,1.000000
3708367.986795,-2.000000,1.000000
3708367.986801,18.000000,1.000000
3708367.995626,95.000000,1.000000
3708367.995633,120.000000,1.000000
3708368.016983,122.000000,1.000000
3708368.016988,104.000000,1.000000
3708368.030888,26.000000,1.000000
3708368.030895,-1.000000,1.000000
3708368.032160,0.000000,1.000000
3708368.032163,17.000000,1.000000
3708368.033430,96.000000,1.000000
3708368.033435,122.000000,1.000000
3708368.035973,123.000000,1.000000
3708368.035976,103.000000,1.000000
3708368.043540,23.000000,1.000000
3708368.043545,1.000000,1.000000
3708368.049878,-3.000000,1.000000
3708368.049882,14.000000,1.000000
3708368.058619,95.000000,1.000000
3708368.058626,119.000000,1.000000
3708368.067441,120.000000,1.000000
3708368.067444,104.000000,1.000000
3708368.073741,26.000000,1.000000
3708368.073745,1.000000,1.000000
3708368.085198,-2.000000,1.000000
3708368.085205,16.000000,1.000000
3708368.091504,95.000000,1.000000
3708368.091511,119.000000,1.000000
3708368.100362,123.000000,1.000000
3708368.100365,105.000000,1.000000
3708368.106678,26.000000,1.000000
3708368.106684,-1.000000,1.000000
3708368.115491,-2.000000,1.000000
3708368.115495,16.000000,1.000000
3708368.134390,96.000000,1.000000
3708368.134397,120.000000,1.000000
3708368.134403,121.000000,1.000000
3708368.134404,104.000000,1.000000
3708368.136932,25.000000,1.000000
3708368.136936,2.000000,1.000000
3708368.145837,-1.000000,1.000000
3708368.145849,16.000000,1.000000
3708368.159710,94.000000,1.000000
3708368.159717,120.000000,1.000000
3708368.163307,121.000000,1.000000
3708368.163310,103.000000,1.000000
3708368.172210,24.000000,1.000000
3708368.172215,0.000000,1.000000
3708368.178594,-1.000000,1.000000
3708368.178597,16.000000,1.000000
3708368.187415,95.000000,1.000000
3708368.187418,120.000000,1.000000
3708368.193712,121.000000,1.000000
3708368.193715,104.000000,1.000000
3708368.202535,26.000000,1.000000
3708368.202555,1.000000,1.000000
3708368.211377,-1.000000,1.000000
3708368.211381,16.000000,1.000000
3708368.217698,95.000000,1.000000
3708368.217703,120.000000,1.000000
3708368.226506,121.000000,1.000000
3708368.226512,106.000000,1.000000
3708368.235337,26.000000,1.000000
3708368.235342,-2.000000,1.000000
3708368.242917,0.000000,1.000000
3708368.242923,18.000000,1.000000
3708368.249214,95.000000,1.000000
3708368.249219,120.000000,1.000000
3708368.258018,120.000000,1.000000
3708368.258021,105.000000,1.000000
3708368.276947,26.000000,1.000000
3708368.276951,0.000000,1.000000
3708368.276966,0.000000,1.000000
3708368.276967,16.000000,1.000000
3708368.283264,95.000000,1.000000
3708368.283270,119.000000,1.000000
3708368.290869,120.000000,1.000000
3708368.290872,104.000000,1.000000
3708368.317335,24.000000,1.000000
3708368.317354,-1.000000,1.000000
3708368.330018,-2.000000,1.000000
3708368.330031,18.000000,1.000000
3708368.331302,97.000000,1.000000
3708368.331304,119.000000,1.000000
3708368.332576,121.000000,1.000000
3708368.332580,105.000000,1.000000
3708368.336385,26.000000,1.000000
3708368.336389,1.000000,1.000000
3708368.337658,-2.000000,1.000000
3708368.337661,14.000000,1.000000
3708368.350266,93.000000,1.000000
3708368.350272,119.000000,1.000000
3708368.355311,120.000000,1.000000
3708368.355313,102.000000,1.000000
3708368.364215,23.000000,1.000000
3708368.364221,-3.000000,1.000000
3708368.369274,-3.000000,1.000000
3708368.369278,14.000000,1.000000
3708368.378104,92.000000,1.000000
3708368.378108,116.000000,1.000000
3708368.386911,116.000000,1.000000
3708368.386914,102.000000,1.000000
3708368.393213,23.000000,1.000000
3708368.393218,-2.000000,1.000000
3708368.403193,-3.000000,1.000000
3708368.403209,13.000000,1.000000
3708368.422077,94.000000,1.000000
3708368.422081,118.000000,1.000000
3708368.422087,120.000000,1.000000
3708368.422089,104.000000,1.000000
3708368.427133,23.000000,1.000000
3708368.427138,-3.000000,1.000000
3708368.433450,-3.000000,1.000000
3708368.433453,12.000000,1.000000
3708368.442283,91.000000,1.000000
3708368.442289,116.000000,1.000000
3708368.451098,117.000000,1.000000
3708368.451104,100.000000,1.000000
3708368.457403,22.000000,1.000000
3708368.457408,-6.000000,1.000000
3708368.466228,-4.000000,1.000000
3708368.466231,13.000000,1.000000
3708368.473814,92.000000,1.000000
3708368.473818,118.000000,1.000000
3708368.483918,116.000000,1.000000
3708368.483920,98.000000,1.000000
3708368.490229,23.000000,1.000000
3708368.490234,-3.000000,1.000000
3708368.499086,-4.000000,1.000000
3708368.499090,12.000000,1.000000
3708368.510438,92.000000,1.000000
3708368.510444,118.000000,1.000000
3708368.514226,118.000000,1.000000
3708368.514231,101.000000,1.000000
3708368.523131,22.000000,1.000000
3708368.523137,-4.000000,1.000000
3708368.530710,-6.000000,1.000000
3708368.530715,12.000000,1.000000
3708368.539532,91.000000,1.000000
3708368.539536,116.000000,1.000000
3708368.545829,118.000000,1.000000
3708368.545835,99.000000,1.000000
3708368.554650,24.000000,1.000000
3708368.554654,-2.000000,1.000000
3708368.573675,-3.000000,1.000000
3708368.573680,13.000000,1.000000
3708368.573688,92.000000,1.000000
3708368.573690,116.000000,1.000000
3708368.576272,117.000000,1.000000
3708368.576275,100.000000,1.000000
3708368.586389,22.000000,1.000000
3708368.586396,-2.000000,1.000000
3708368.616659,-5.000000,1.000000
3708368.616666,12.000000,1.000000
3708368.630549,91.000000,1.000000
3708368.630554,118.000000,1.000000
3708368.631820,120.000000,1.000000
3708368.631823,102.000000,1.000000
3708368.633098,22.000000,1.000000
3708368.633101,-5.000000,1.000000
3708368.635620,-4.000000,1.000000
3708368.635622,15.000000,1.000000
3708368.638142,93.000000,1.000000
3708368.638144,117.000000,1.000000
3708368.643172,118.000000,1.000000
3708368.643175,101.000000,1.000000
3708368.651994,24.000000,1.000000
3708368.651999,-3.000000,1.000000
3708368.660815,-4.000000,1.000000
3708368.660819,14.000000,1.000000
3708368.665858,93.000000,1.000000
3708368.665865,119.000000,1.000000
3708368.674660,119.000000,1.000000
3708368.674663,102.000000,1.000000
3708368.683471,22.000000,1.000000
3708368.683478,-3.000000,1.000000
3708368.689849,-5.000000,1.000000
3708368.689853,13.000000,1.000000
3708368.698675,94.000000,1.000000
3708368.698679,118.000000,1.000000
3708368.717667,118.000000,1.000000
3708368.717672,101.000000,1.000000
3708368.717680,22.000000,1.000000
3708368.717681,-3.000000,1.000000
3708368.723981,-3.000000,1.000000
3708368.723984,15.000000,1.000000
3708368.732801,94.000000,1.000000
3708368.732807,118.000000,1.000000
3708368.739096,120.000000,1.000000
3708368.739098,105.000000,1.000000
3708368.746663,25.000000,1.000000
3708368.746668,-1.000000,1.000000
3708368.752963,-5.000000,1.000000
3708368.752966,13.000000,1.000000
3708368.761774,91.000000,1.000000
3708368.761780,118.000000,1.000000
3708368.770571,119.000000,1.000000
3708368.770574,101.000000,1.000000
3708368.778240,24.000000,1.000000
3708368.778248,-2.000000,1.000000
3708368.785941,-4.000000,1.000000
3708368.785945,13.000000,1.000000
3708368.794776,90.000000,1.000000
3708368.794780,117.000000,1.000000
3708368.803598,117.000000,1.000000
3708368.803602,101.000000,1.000000
3708368.809908,23.000000,1.000000
3708368.809924,-2.000000,1.000000
3708368.818746,-3.000000,1.000000
3708368.818753,12.000000,1.000000
3708368.837637,91.000000,1.000000
3708368.837643,117.000000,1.000000
3708368.837649,117.000000,1.000000
3708368.837651,100.000000,1.000000
3708368.843973,21.000000,1.000000
3708368.843986,-5.000000,1.000000
3708368.855323,-5.000000,1.000000
3708368.855331,13.000000,1.000000
3708368.857858,91.000000,1.000000
3708368.857864,115.000000,1.000000
3708368.870444,116.000000,1.000000
3708368.870451,101.000000,1.000000
3708368.874233,21.000000,1.000000
3708368.874239,-6.000000,1.000000
3708368.881835,-4.000000,1.000000
3708368.881839,13.000000,1.000000
3708368.890669,92.000000,1.000000
3708368.890675,118.000000,1.000000
3708368.915841,116.000000,1.000000
3708368.915846,102.000000,1.000000
3708368.929679,24.000000,1.000000
3708368.929683,-3.000000,1.000000
3708368.931011,-3.000000,1.000000
3708368.931015,16.000000,1.000000
3708368.933614,92.000000,1.000000
3708368.933617,117.000000,1.000000
3708368.934890,117.000000,1.000000
3708368.934893,100.000000,1.000000
3708368.941215,21.000000,1.000000
3708368.941221,-5.000000,1.000000
3708368.947514,-5.000000,1.000000
3708368.947520,11.000000,1.000000
3708368.956337,90.000000,1.000000
3708368.956340,114.000000,1.000000
3708368.965160,115.000000,1.000000
3708368.965166,100.000000,1.000000
3708368.970215,23.000000,1.000000
3708368.970221,-4.000000,1.000000
3708368.977789,-5.000000,1.000000
3708368.977795,12.000000,1.000000
3708368.997811,92.000000,1.000000
3708368.997817,116.000000,1.000000
3708368.997823,119.000000,1.000000
3708368.997830,102.000000,1.000000
3708369.004142,22.000000,1.000000
3708369.004161,-3.000000,1.000000
3708369.012989,-4.000000,1.000000
3708369.012994,13.000000,1.000000
3708369.018079,89.000000,1.000000
3708369.018083,116.000000,1.000000
3708369.030676,118.000000,1.000000
3708369.030680,100.000000,1.000000
3708369.034479,21.000000,1.000000
3708369.034486,-6.000000,1.000000
3708369.041975,-9.000000,1.000000
3708369.041979,11.000000,1.000000
3708369.050807,93.000000,1.000000
3708369.050814,117.000000,1.000000
3708369.057100,118.000000,1.000000
3708369.057103,99.000000,1.000000
3708369.065915,23.000000,1.000000
3708369.065919,-2.000000,1.000000
3708369.075784,-5.000000,1.000000
3708369.075791,12.000000,1.000000
3708369.083357,92.000000,1.000000
3708369.083361,117.000000,1.000000
3708369.089653,117.000000,1.000000
3708369.089656,99.000000,1.000000
3708369.101019,17.000000,1.000000
3708369.101024,-5.000000,1.000000
3708369.107336,-6.000000,1.000000
3708369.107343,11.000000,1.000000
3708369.116167,91.000000,1.000000
3708369.116173,114.000000,1.000000
3708369.122461,116.000000,1.000000
3708369.122464,98.000000,1.000000
3708369.141382,20.000000,1.000000
3708369.141388,-8.000000,1.000000
3708369.141393,-6.000000,1.000000
3708369.141395,11.000000,1.000000
3708369.146435,89.000000,1.000000
3708369.146441,115.000000,1.000000
3708369.152744,115.000000,1.000000
3708369.152748,99.000000,1.000000
3708369.162918,21.000000,1.000000
3708369.162923,-5.000000,1.000000
3708369.171753,-5.000000,1.000000
3708369.171757,12.000000,1.000000
3708369.176794,89.000000,1.000000
3708369.176801,115.000000,1.000000
3708369.185603,116.000000,1.000000
3708369.185606,97.000000,1.000000
3708369.194425,19.000000,1.000000
3708369.194430,-6.000000,1.000000
3708369.219581,-8.000000,1.000000
3708369.219588,11.000000,1.000000
3708369.230730,91.000000,1.000000
3708369.230743,115.000000,1.000000
3708369.232015,115.000000,1.000000
3708369.232025,98.000000,1.000000
3708369.254698,18.000000,1.000000
3708369.254704,-5.000000,1.000000
3708369.255971,-7.000000,1.000000
3708369.255974,10.000000,1.000000
3708369.261059,89.000000,1.000000
3708369.261064,115.000000,1.000000
3708369.263612,116.000000,1.000000
3708369.263617,98.000000,1.000000
3708369.264889,20.000000,1.000000
3708369.264896,-5.000000,1.000000
3708369.266162,-7.000000,1.000000
3708369.266168,10.000000,1.000000
3708369.276028,90.000000,1.000000
3708369.276032,117.000000,1.000000
3708369.282332,116.000000,1.000000
3708369.282338,98.000000,1.000000
3708369.296241,20.000000,1.000000
3708369.296246,-8.000000,1.000000
3708369.302614,-8.000000,1.000000
3708369.302618,10.000000,1.000000
3708369.306410,88.000000,1.000000
3708369.306416,114.000000,1.000000
3708369.315226,116.000000,1.000000
3708369.315229,99.000000,1.000000
3708369.324080,20.000000,1.000000
3708369.324091,-5.000000,1.000000
3708369.329176,-6.000000,1.000000
3708369.329180,11.000000,1.000000
3708369.337993,89.000000,1.000000
3708369.338000,114.000000,1.000000
3708369.349332,116.000000,1.000000
3708369.349335,100.000000,1.000000
3708369.353178,19.000000,1.000000
3708369.353182,-4.000000,1.000000
3708369.364430,-6.000000,1.000000
3708369.364435,9.000000,1.000000
3708369.371988,87.000000,1.000000
3708369.371991,116.000000,1.000000
3708369.380797,116.000000,1.000000
3708369.380802,98.000000,1.000000
3708369.385879,21.000000,1.000000
3708369.385886,-4.000000,1.000000
3708369.394723,-5.000000,1.000000
3708369.394726,11.000000,1.000000
3708369.413623,89.000000,1.000000
3708369.413627,115.000000,1.000000
3708369.413633,117.000000,1.000000
3708369.413637,100.000000,1.000000
3708369.417427,20.000000,1.000000
3708369.417432,-5.000000,1.000000
3708369.426252,-6.000000,1.000000
3708369.426257,11.000000,1.000000
3708369.437425,89.000000,1.000000
3708369.437431,114.000000,1.000000
3708369.443720,114.000000,1.000000
3708369.443723,99.000000,1.000000
3708369.452613,21.000000,1.000000
3708369.452619,-5.000000,1.000000
3708369.459042,-7.000000,1.000000
3708369.459048,11.000000,1.000000
3708369.467862,90.000000,1.000000
3708369.467866,115.000000,1.000000
3708369.474153,114.000000,1.000000
3708369.474156,98.000000,1.000000
3708369.482973,18.000000,1.000000
3708369.482980,-5.000000,1.000000
3708369.490545,-6.000000,1.000000
3708369.490549,11.000000,1.000000
3708369.515722,89.000000,1.000000
3708369.515728,114.000000,1.000000
3708369.529614,119.000000,1.000000
3708369.529622,99.000000,1.000000
3708369.530889,20.000000,1.000000
3708369.530896,-6.000000,1.000000
3708369.532162,-7.000000,1.000000
3708369.532169,11.000000,1.000000
3708369.535830,88.000000,1.000000
3708369.535835,114.000000,1.000000
3708369.539462,116.000000,1.000000
3708369.539464,98.000000,1.000000
3708369.553482,19.000000,1.000000
3708369.553488,-6.000000,1.000000
3708369.554755,-8.000000,1.000000
3708369.554758,9.000000,1.000000
3708369.562327,89.000000,1.000000
3708369.562330,116.000000,1.000000
3708369.571158,119.000000,1.000000
3708369.571160,100.000000,1.000000
3708369.590236,19.000000,1.000000
3708369.590250,-7.000000,1.000000
3708369.590267,-9.000000,1.000000
3708369.590269,8.000000,1.000000
3708369.592864,89.000000,1.000000
3708369.592866,115.000000,1.000000
3708369.605470,115.000000,1.000000
3708369.605473,98.000000,1.000000
3708369.611770,19.000000,1.000000
3708369.611775,-6.000000,1.000000
3708369.618082,-6.000000,1.000000
3708369.618095,9.000000,1.000000
3708369.626927,85.000000,1.000000
3708369.626931,111.000000,1.000000
3708369.635587,112.000000,1.000000
3708369.635591,95.000000,1.000000
3708369.644437,18.000000,1.000000
3708369.644442,-7.000000,1.000000
3708369.649505,-9.000000,1.000000
3708369.649509,8.000000,1.000000
3708369.659594,86.000000,1.000000
3708369.659597,111.000000,1.000000
3708369.668410,114.000000,1.000000
3708369.668413,96.000000,1.000000
3708369.674758,16.000000,1.000000
3708369.674764,-8.000000,1.000000
3708369.684688,-8.000000,1.000000
3708369.684693,9.000000,1.000000
3708369.690988,87.000000,1.000000
3708369.690991,112.000000,1.000000
3708369.699808,113.000000,1.000000
3708369.699812,94.000000,1.000000
3708369.706175,17.000000,1.000000
3708369.706180,-9.000000,1.000000
3708369.714986,-10.000000,1.000000
3708369.714990,6.000000,1.000000
3708369.733864,85.000000,1.000000
3708369.733871,110.000000,1.000000
3708369.733877,113.000000,1.000000
3708369.733883,94.000000,1.000000
3708369.736408,17.000000,1.000000
3708369.736413,-8.000000,1.000000
3708369.746384,-8.000000,1.000000
3708369.746389,8.000000,1.000000
3708369.755195,84.000000,1.000000
3708369.755198,112.000000,1.000000
3708369.764011,112.000000,1.000000
3708369.764018,96.000000,1.000000
3708369.770331,18.000000,1.000000
3708369.770338,-8.000000,1.000000
3708369.777885,-10.000000,1.000000
3708369.777888,8.000000,1.000000
3708369.786712,87.000000,1.000000
3708369.786718,111.000000,1.000000
3708369.793003,112.000000,1.000000
3708369.793006,98.000000,1.000000
3708369.816952,17.000000,1.000000
3708369.816957,-9.000000,1.000000
3708369.830803,-8.000000,1.000000
3708369.830809,9.000000,1.000000
3708369.832074,85.000000,1.000000
3708369.832077,112.000000,1.000000
3708369.833349,110.000000,1.000000
3708369.833354,94.000000,1.000000
3708369.835885,16.000000,1.000000
3708369.835889,-11.000000,1.000000
3708369.853527,-11.000000,1.000000
3708369.853532,6.000000,1.000000
3708369.853538,85.000000,1.000000
3708369.853539,110.000000,1.000000
3708369.857316,112.000000,1.000000
3708369.857320,95.000000,1.000000
3708369.869916,16.000000,1.000000
3708369.869926,-10.000000,1.000000
3708369.872457,-10.000000,1.000000
3708369.872461,6.000000,1.000000
3708369.882430,84.000000,1.000000
3708369.882434,111.000000,1.000000
3708369.891241,112.000000,1.000000
3708369.891244,94.000000,1.000000
3708369.897634,16.000000,1.000000
3708369.897660,-9.000000,1.000000
3708369.906500,-10.000000,1.000000
3708369.906504,6.000000,1.000000
3708369.915334,85.000000,1.000000
3708369.915337,112.000000,1.000000
3708369.924160,114.000000,1.000000
3708369.924164,95.000000,1.000000
3708369.930478,17.000000,1.000000
3708369.930484,-9.000000,1.000000
3708369.941833,-12.000000,1.000000
3708369.941838,6.000000,1.000000
3708369.946884,85.000000,1.000000
3708369.946891,111.000000,1.000000
3708369.953188,112.000000,1.000000
3708369.953193,94.000000,1.000000
3708369.962026,16.000000,1.000000
3708369.962036,-11.000000,1.000000
3708369.980912,-9.000000,1.000000
3708369.980916,8.000000,1.000000
3708369.980922,84.000000,1.000000
3708369.980923,110.000000,1.000000
3708369.988439,114.000000,1.000000
3708369.988443,97.000000,1.000000
3708369.993591,15.000000,1.000000
3708369.993597,-11.000000,1.000000
3708370.012535,-12.000000,1.000000
3708370.012541,7.000000,1.000000
3708370.012547,84.000000,1.000000
3708370.012548,111.000000,1.000000
3708370.018858,112.000000,1.000000
3708370.018862,94.000000,1.000000
3708370.027691,15.000000,1.000000
3708370.027696,-10.000000,1.000000
3708370.034027,-11.000000,1.000000
3708370.034032,5.000000,1.000000
3708370.042796,83.000000,1.000000
3708370.042802,110.000000,1.000000
3708370.051608,112.000000,1.000000
3708370.051611,94.000000,1.000000
3708370.060502,15.000000,1.000000
3708370.060507,-11.000000,1.000000
3708370.065545,-11.000000,1.000000
3708370.065548,6.000000,1.000000
3708370.074375,85.000000,1.000000
3708370.074378,110.000000,1.000000
3708370.083175,113.000000,1.000000
3708370.083177,95.000000,1.000000
3708370.089475,16.000000,1.000000
3708370.089480,-9.000000,1.000000
3708370.115972,-12.000000,1.000000
3708370.115981,6.000000,1.000000
3708370.131086,85.000000,1.000000
3708370.131095,109.000000,1.000000
3708370.131103,109.000000,1.000000
3708370.131104,94.000000,1.000000
3708370.132377,14.000000,1.000000
3708370.132381,-12.000000,1.000000
3708370.134923,-13.000000,1.000000
3708370.134926,4.000000,1.000000
3708370.138704,86.000000,1.000000
3708370.138707,111.000000,1.000000
3708370.152534,109.000000,1.000000
3708370.152538,93.000000,1.000000
3708370.158862,15.000000,1.000000
3708370.158867,-11.000000,1.000000
3708370.161408,-13.000000,1.000000
3708370.161412,4.000000,1.000000
3708370.170226,83.000000,1.000000
3708370.170232,110.000000,1.000000
3708370.177802,109.000000,1.000000
3708370.177804,94.000000,1.000000
3708370.186641,13.000000,1.000000
3708370.186647,-11.000000,1.000000
3708370.197974,-12.000000,1.000000
3708370.197983,6.000000,1.000000
3708370.204295,85.000000,1.000000
3708370.204297,110.000000,1.000000
3708370.210589,109.000000,1.000000
3708370.210594,93.000000,1.000000
3708370.218151,13.000000,1.000000
3708370.218158,-14.000000,1.000000
3708370.226965,-15.000000,1.000000
3708370.226969,6.000000,1.000000
3708370.233263,83.000000,1.000000
3708370.233269,107.000000,1.000000
3708370.242071,109.000000,1.000000
3708370.242077,93.000000,1.000000
3708370.255922,14.000000,1.000000
3708370.255927,-10.000000,1.000000
3708370.259713,-13.000000,1.000000
3708370.259717,3.000000,1.000000
3708370.266051,85.000000,1.000000
3708370.266056,111.000000,1.000000
3708370.276117,109.000000,1.000000
3708370.276121,91.000000,1.000000
3708370.293805,13.000000,1.000000
3708370.293810,-12.000000,1.000000
3708370.293820,-13.000000,1.000000
3708370.293821,4.000000,1.000000
3708370.297598,83.000000,1.000000
3708370.297604,107.000000,1.000000
3708370.306411,108.000000,1.000000
3708370.306414,92.000000,1.000000
3708370.320277,12.000000,1.000000
3708370.320283,-13.000000,1.000000
3708370.322812,-17.000000,1.000000
3708370.322818,3.000000,1.000000
3708370.329110,81.000000,1.000000
3708370.329113,107.000000,1.000000
3708370.342953,110.000000,1.000000
3708370.342959,93.000000,1.000000
3708370.345519,13.000000,1.000000
3708370.345523,-10.000000,1.000000
3708370.361888,-12.000000,1.000000
3708370.361892,4.000000,1.000000
3708370.363159,83.000000,1.000000
3708370.363166,108.000000,1.000000
3708370.374484,112.000000,1.000000
3708370.374487,92.000000,1.000000
3708370.378273,13.000000,1.000000
3708370.378280,-10.000000,1.000000
3708370.385858,-10.000000,1.000000
3708370.385863,5.000000,1.000000
3708370.394674,83.000000,1.000000
3708370.394681,108.000000,1.000000
3708370.416086,108.000000,1.000000
3708370.416091,93.000000,1.000000
3708370.429934,15.000000,1.000000
3708370.429938,-10.000000,1.000000
3708370.432406,-13.000000,1.000000
3708370.432412,6.000000,1.000000
3708370.433679,84.000000,1.000000
3708370.433685,108.000000,1.000000
3708370.436213,109.000000,1.000000
3708370.436215,92.000000,1.000000
3708370.446332,13.000000,1.000000
3708370.446344,-12.000000,1.000000
3708370.450145,-13.000000,1.000000
3708370.450149,5.000000,1.000000
3708370.458970,83.000000,1.000000
3708370.458974,109.000000,1.000000
3708370.467788,110.000000,1.000000
3708370.467791,92.000000,1.000000
3708370.474104,13.000000,1.000000
3708370.474109,-13.000000,1.000000
3708370.481702,-14.000000,1.000000
3708370.481707,5.000000,1.000000
3708370.490556,83.000000,1.000000
3708370.490561,107.000000,1.000000
3708370.500388,108.000000,1.000000
3708370.500391,92.000000,1.000000
3708370.506695,13.000000,1.000000
3708370.506700,-12.000000,1.000000
3708370.534411,-13.000000,1.000000
3708370.534416,5.000000,1.000000
3708370.536945,83.000000,1.000000
3708370.536948,108.000000,1.000000
3708370.538217,109.000000,1.000000
3708370.538220,92.000000,1.000000
3708370.539489,13.000000,1.000000
3708370.539493,-13.000000,1.000000
3708370.545791,-13.000000,1.000000
3708370.545795,4.000000,1.000000
3708370.554609,83.000000,1.000000
3708370.554616,108.000000,1.000000
3708370.573508,109.000000,1.000000
3708370.573516,92.000000,1.000000
3708370.573522,13.000000,1.000000
3708370.573523,-11.000000,1.000000
3708370.579825,-12.000000,1.000000
3708370.579829,4.000000,1.000000
3708370.586135,83.000000,1.000000
3708370.586138,108.000000,1.000000
3708370.594944,110.000000,1.000000
3708370.594946,94.000000,1.000000
3708370.603784,14.000000,1.000000
3708370.603789,-12.000000,1.000000
3708370.610084,-14.000000,1.000000
3708370.610087,5.000000,1.000000
3708370.618939,85.000000,1.000000
3708370.618945,109.000000,1.000000
3708370.627754,108.000000,1.000000
3708370.627759,92.000000,1.000000
3708370.634084,14.000000,1.000000
3708370.634090,-11.000000,1.000000
3708370.642939,-12.000000,1.000000
3708370.642944,6.000000,1.000000
3708370.651766,83.000000,1.000000
3708370.651769,106.000000,1.000000
3708370.660580,109.000000,1.000000
3708370.660586,94.000000,1.000000
3708370.666937,14.000000,1.000000
3708370.666942,-13.000000,1.000000
3708370.674509,-14.000000,1.000000
3708370.674513,3.000000,1.000000
3708370.693379,84.000000,1.000000
3708370.693385,112.000000,1.000000
3708370.693391,113.000000,1.000000
3708370.693393,88.000000,1.000000
3708370.716067,10.000000,1.000000
3708370.716074,-14.000000,1.000000
3708370.730958,-15.000000,1.000000
3708370.730963,2.000000,1.000000
3708370.732239,82.000000,1.000000
3708370.732255,107.000000,1.000000
3708370.734781,107.000000,1.000000
3708370.734785,90.000000,1.000000
3708370.736048,9.000000,1.000000
3708370.736051,-14.000000,1.000000
3708370.742367,-15.000000,1.000000
3708370.742376,0.000000,1.000000
3708370.748676,82.000000,1.000000
3708370.748680,108.000000,1.000000
3708370.754972,109.000000,1.000000
3708370.754974,91.000000,1.000000
3708370.762537,13.000000,1.000000
3708370.762542,-12.000000,1.000000
3708370.770114,-13.000000,1.000000
3708370.770117,4.000000,1.000000
3708370.780203,83.000000,1.000000
3708370.780209,108.000000,1.000000
3708370.786521,109.000000,1.000000
3708370.786526,92.000000,1.000000
3708370.795360,12.000000,1.000000
3708370.795365,-15.000000,1.000000
3708370.809254,-14.000000,1.000000
3708370.809259,4.000000,1.000000
3708370.811786,82.000000,1.000000
3708370.811790,109.000000,1.000000
3708370.819349,108.000000,1.000000
3708370.819354,91.000000,1.000000
3708370.838390,12.000000,1.000000
3708370.838403,-13.000000,1.000000
3708370.838409,-15.000000,1.000000
3708370.838411,4.000000,1.000000
3708370.844720,82.000000,1.000000
3708370.844726,108.000000,1.000000
3708370.852299,108.000000,1.000000
3708370.852302,91.000000,1.000000
3708370.859872,13.000000,1.000000
3708370.859878,-12.000000,1.000000
3708370.870101,-13.000000,1.000000
3708370.870118,4.000000,1.000000
3708370.873904,84.000000,1.000000
3708370.873910,108.000000,1.000000
3708370.882720,109.000000,1.000000
3708370.882723,93.000000,1.000000
3708370.891568,12.000000,1.000000
3708370.891579,-14.000000,1.000000
3708370.897887,-13.000000,1.000000
3708370.897891,6.000000,1.000000
3708370.906807,84.000000,1.000000
3708370.906810,107.000000,1.000000
3708370.915625,110.000000,1.000000
3708370.915631,91.000000,1.000000
3708370.924461,14.000000,1.000000
3708370.924465,-13.000000,1.000000
3708370.930771,-13.000000,1.000000
3708370.930776,4.000000,1.000000
3708370.939592,83.000000,1.000000
3708370.939595,108.000000,1.000000
3708370.950937,110.000000,1.000000
3708370.950940,93.000000,1.000000
3708370.953489,14.000000,1.000000
3708370.953495,-11.000000,1.000000
3708370.962407,-14.000000,1.000000
3708370.962412,4.000000,1.000000
3708370.982552,82.000000,1.000000
3708370.982556,108.000000,1.000000
3708370.982562,109.000000,1.000000
3708370.982563,93.000000,1.000000
3708370.987628,13.000000,1.000000
3708370.987633,-13.000000,1.000000
3708370.993938,-11.000000,1.000000
3708370.993942,4.000000,1.000000
3708371.016596,80.000000,1.000000
3708371.016603,106.000000,1.000000
3708371.030237,108.000000,1.000000
3708371.030243,89.000000,1.000000
3708371.031507,9.000000,1.000000
3708371.031510,-14.000000,1.000000
3708371.034039,-12.000000,1.000000
3708371.034043,2.000000,1.000000
3708371.036565,82.000000,1.000000
3708371.036572,108.000000,1.000000
3708371.042857,109.000000,1.000000
3708371.042859,92.000000,1.000000
3708371.051712,14.000000,1.000000
3708371.051717,-12.000000,1.000000
3708371.059273,-13.000000,1.000000
3708371.059278,3.000000,1.000000
3708371.065574,81.000000,1.000000
3708371.065580,107.000000,1.000000
3708371.074403,108.000000,1.000000
3708371.074407,90.000000,1.000000
3708371.084304,12.000000,1.000000
3708371.084310,-13.000000,1.000000
3708371.090626,-15.000000,1.000000
3708371.090632,1.000000,1.000000
3708371.099478,80.000000,1.000000
3708371.099485,108.000000,1.000000
3708371.113334,110.000000,1.000000
3708371.113338,92.000000,1.000000
3708371.115932,13.000000,1.000000
3708371.115937,-10.000000,1.000000
3708371.131071,-14.000000,1.000000
3708371.131076,2.000000,1.000000
3708371.131082,82.000000,1.000000
3708371.131083,107.000000,1.000000
3708371.149985,107.000000,1.000000
3708371.149991,90.000000,1.000000
3708371.149999,12.000000,1.000000
3708371.150000,-12.000000,1.000000
3708371.152526,-15.000000,1.000000
3708371.152539,1.000000,1.000000
3708371.162456,82.000000,1.000000
3708371.162460,108.000000,1.000000
3708371.171287,108.000000,1.000000
3708371.171290,90.000000,1.000000
3708371.177598,11.000000,1.000000
3708371.177603,-13.000000,1.000000
3708371.186486,-14.000000,1.000000
3708371.186490,3.000000,1.000000
3708371.195355,82.000000,1.000000
3708371.195370,108.000000,1.000000
3708371.204205,109.000000,1.000000
3708371.204208,92.000000,1.000000
3708371.215597,14.000000,1.000000
3708371.215602,-10.000000,1.000000
3708371.218143,-13.000000,1.000000
3708371.218149,4.000000,1.000000
3708371.229500,82.000000,1.000000
3708371.229504,108.000000,1.000000
3708371.233300,110.000000,1.000000
3708371.233305,89.000000,1.000000
3708371.242119,13.000000,1.000000
3708371.242123,-13.000000,1.000000
3708371.261050,-13.000000,1.000000
3708371.261056,3.000000,1.000000
3708371.261062,82.000000,1.000000
3708371.261063,107.000000,1.000000
3708371.268429,109.000000,1.000000
3708371.268432,93.000000,1.000000
3708371.274752,15.000000,1.000000
3708371.274758,-12.000000,1.000000
3708371.282453,-12.000000,1.000000
3708371.282457,4.000000,1.000000
3708371.291268,82.000000,1.000000
3708371.291272,109.000000,1.000000
3708371.316459,109.000000,1.000000
3708371.316464,91.000000,1.000000
3708371.330355,14.000000,1.000000
3708371.330359,-11.000000,1.000000
3708371.331626,-14.000000,1.000000
3708371.331632,4.000000,1.000000
3708371.332905,82.000000,1.000000
3708371.332908,107.000000,1.000000
3708371.335438,109.000000,1.000000
3708371.335441,90.000000,1.000000
3708371.339240,12.000000,1.000000
3708371.339245,-13.000000,1.000000
3708371.353134,-16.000000,1.000000
3708371.353139,3.000000,1.000000
3708371.353145,82.000000,1.000000
3708371.353168,106.000000,1.000000
3708371.361963,109.000000,1.000000
3708371.361966,95.000000,1.000000
3708371.380908,14.000000,1.000000
3708371.380912,-12.000000,1.000000
3708371.380918,-11.000000,1.000000
3708371.380919,3.000000,1.000000
3708371.387094,82.000000,1.000000
3708371.387097,108.000000,1.000000
3708371.394646,110.000000,1.000000
3708371.394652,92.000000,1.000000
3708371.403486,12.000000,1.000000
3708371.403491,-12.000000,1.000000
3708371.411052,-14.000000,1.000000
3708371.411056,4.000000,1.000000
3708371.431191,84.000000,1.000000
3708371.431195,109.000000,1.000000
3708371.431201,107.000000,1.000000
3708371.431205,90.000000,1.000000
3708371.433740,13.000000,1.000000
3708371.433745,-13.000000,1.000000
3708371.442562,-15.000000,1.000000
3708371.442568,4.000000,1.000000
3708371.451417,83.000000,1.000000
3708371.451420,108.000000,1.000000
3708371.460227,110.000000,1.000000
3708371.460231,94.000000,1.000000
3708371.466532,14.000000,1.000000
3708371.466536,-11.000000,1.000000
3708371.478885,-11.000000,1.000000
3708371.478888,6.000000,1.000000
3708371.483962,84.000000,1.000000
3708371.483966,108.000000,1.000000
3708371.490264,112.000000,1.000000
3708371.490266,93.000000,1.000000
3708371.499046,15.000000,1.000000
3708371.499054,-11.000000,1.000000
3708371.507872,-13.000000,1.000000
3708371.507880,5.000000,1.000000
3708371.514193,85.000000,1.000000
3708371.514201,108.000000,1.000000
3708371.522927,108.000000,1.000000
3708371.522932,89.000000,1.000000
3708371.540598,13.000000,1.000000
3708371.540604,-11.000000,1.000000
3708371.540610,-15.000000,1.000000
3708371.540611,2.000000,1.000000
3708371.546911,82.000000,1.000000
3708371.546917,108.000000,1.000000
3708371.553203,108.000000,1.000000
3708371.553209,91.000000,1.000000
3708371.564637,13.000000,1.000000
3708371.564644,-11.000000,1.000000
3708371.571022,-12.000000,1.000000
3708371.571026,5.000000,1.000000
3708371.577323,80.000000,1.000000
3708371.577330,106.000000,1.000000
3708371.586137,110.000000,1.000000
3708371.586142,93.000000,1.000000
3708371.594955,11.000000,1.000000
3708371.594962,-16.000000,1.000000
3708371.616348,-16.000000,1.000000
3708371.616355,1.000000,1.000000
3708371.630209,81.000000,1.000000
3708371.630216,104.000000,1.000000
3708371.631484,105.000000,1.000000
3708371.631487,90.000000,1.000000
3708371.632756,11.000000,1.000000
3708371.632760,-14.000000,1.000000
3708371.636298,-16.000000,1.000000
3708371.636300,1.000000,1.000000
3708371.646142,81.000000,1.000000
3708371.646144,106.000000,1.000000
3708371.649951,108.000000,1.000000
3708371.649957,90.000000,1.000000
3708371.658779,10.000000,1.000000
3708371.658784,-14.000000,1.000000
3708371.677716,-15.000000,1.000000
3708371.677722,2.000000,1.000000
3708371.677729,81.000000,1.000000
3708371.677730,107.000000,1.000000
3708371.684034,106.000000,1.000000
3708371.684037,90.000000,1.000000
3708371.690345,12.000000,1.000000
3708371.690350,-14.000000,1.000000
3708371.699098,-16.000000,1.000000
3708371.699102,0.000000,1.000000
3708371.706666,79.000000,1.000000
3708371.706672,105.000000,1.000000
3708371.712959,106.000000,1.000000
3708371.712964,91.000000,1.000000
3708371.721780,11.000000,1.000000
3708371.721785,-17.000000,1.000000
3708371.734361,-14.000000,1.000000
3708371.734373,4.000000,1.000000
3708371.738154,81.000000,1.000000
3708371.738156,105.000000,1.000000
3708371.746967,107.000000,1.000000
3708371.746971,90.000000,1.000000
3708371.755824,11.000000,1.000000
3708371.755829,-13.000000,1.000000
3708371.764647,-14.000000,1.000000
3708371.764650,3.000000,1.000000
3708371.769709,79.000000,1.000000
3708371.769714,104.000000,1.000000
3708371.779805,107.000000,1.000000
3708371.779809,90.000000,1.000000
3708371.787385,13.000000,1.000000
3708371.787390,-14.000000,1.000000
3708371.815078,-16.000000,1.000000
3708371.815082,2.000000,1.000000
3708371.817683,79.000000,1.000000
3708371.817690,105.000000,1.000000
3708371.818961,107.000000,1.000000
3708371.818966,88.000000,1.000000
3708371.820235,9.000000,1.000000
3708371.820242,-15.000000,1.000000
3708371.827820,-16.000000,1.000000
3708371.827824,1.000000,1.000000
3708371.834136,80.000000,1.000000
3708371.834142,106.000000,1.000000
3708371.842958,106.000000,1.000000
3708371.842964,87.000000,1.000000
3708371.851630,10.000000,1.000000
3708371.851635,-15.000000,1.000000
3708371.857935,-16.000000,1.000000
3708371.857940,1.000000,1.000000
3708371.866764,77.000000,1.000000
3708371.866772,103.000000,1.000000
3708371.875583,105.000000,1.000000
3708371.875586,89.000000,1.000000
3708371.884424,10.000000,1.000000
3708371.884434,-15.000000,1.000000
3708371.890734,-17.000000,1.000000
3708371.890750,2.000000,1.000000
3708371.917216,79.000000,1.000000
3708371.917221,105.000000,1.000000
3708371.931066,108.000000,1.000000
3708371.931069,88.000000,1.000000
3708371.932337,11.000000,1.000000
3708371.932343,-13.000000,1.000000
3708371.932349,-16.000000,1.000000
3708371.932350,-1.000000,1.000000
3708371.934873,80.000000,1.000000
3708371.934878,108.000000,1.000000
3708371.941183,106.000000,1.000000
3708371.941186,88.000000,1.000000
3708371.947554,8.000000,1.000000
3708371.947598,-16.000000,1.000000
3708371.956352,-16.000000,1.000000
3708371.956356,0.000000,1.000000
3708371.962653,76.000000,1.000000
3708371.962656,102.000000,1.000000
3708371.971464,106.000000,1.000000
3708371.971467,90.000000,1.000000
3708371.990404,9.000000,1.000000
3708371.990409,-16.000000,1.000000
3708371.990415,-17.000000,1.000000
3708371.990416,1.000000,1.000000
3708371.992940,80.000000,1.000000
3708371.992946,103.000000,1.000000
3708372.001748,104.000000,1.000000
3708372.001755,88.000000,1.000000
3708372.011649,12.000000,1.000000
3708372.011658,-14.000000,1.000000
3708372.018043,-17.000000,1.000000
3708372.018047,0.000000,1.000000
3708372.026621,80.000000,1.000000
3708372.026626,105.000000,1.000000
3708372.035432,105.000000,1.000000
3708372.035435,88.000000,1.000000
3708372.044297,9.000000,1.000000
3708372.044302,-15.000000,1.000000
3708372.049353,-16.000000,1.000000
3708372.049362,1.000000,1.000000
3708372.060705,79.000000,1.000000
3708372.060710,104.000000,1.000000
3708372.067003,105.000000,1.000000
3708372.067009,89.000000,1.000000
3708372.073312,10.000000,1.000000
3708372.073316,-17.000000,1.000000
3708372.082137,-16.000000,1.000000
3708372.082141,2.000000,1.000000
3708372.102160,79.000000,1.000000
3708372.102165,105.000000,1.000000
3708372.102197,106.000000,1.000000
3708372.102199,90.000000,1.000000
3708372.107242,12.000000,1.000000
3708372.107246,-16.000000,1.000000
3708372.113549,-14.000000,1.000000
3708372.113558,1.000000,1.000000
3708372.122407,77.000000,1.000000
3708372.122411,102.000000,1.000000
3708372.131220,105.000000,1.000000
3708372.131226,88.000000,1.000000
3708372.137531,7.000000,1.000000
3708372.137537,-18.000000,1.000000
3708372.148901,-18.000000,1.000000
3708372.148909,-3.000000,1.000000
3708372.155227,78.000000,1.000000
3708372.155230,105.000000,1.000000
3708372.164037,105.000000,1.000000
3708372.164041,89.000000,1.000000
3708372.170400,11.000000,1.000000
3708372.170405,-16.000000,1.000000
3708372.179238,-16.000000,1.000000
3708372.179244,2.000000,1.000000
3708372.186811,78.000000,1.000000
3708372.186817,105.000000,1.000000
3708372.193103,107.000000,1.000000
3708372.193109,89.000000,1.000000
3708372.215756,10.000000,1.000000
3708372.215761,-17.000000,1.000000
3708372.229591,-17.000000,1.000000
3708372.229596,0.000000,1.000000
3708372.232145,78.000000,1.000000
3708372.232151,103.000000,1.000000
3708372.232157,106.000000,1.000000
3708372.232158,88.000000,1.000000
3708372.235967,9.000000,1.000000
3708372.235974,-16.000000,1.000000
3708372.242378,-17.000000,1.000000
3708372.242385,2.000000,1.000000
3708372.261258,80.000000,1.000000
3708372.261265,104.000000,1.000000
3708372.261272,106.000000,1.000000
3708372.261274,89.000000,1.000000
3708372.267601,10.000000,1.000000
3708372.267623,-16.000000,1.000000
3708372.274042,-15.000000,1.000000
3708372.274047,0.000000,1.000000
3708372.282882,78.000000,1.000000
3708372.282887,103.000000,1.000000
3708372.292955,106.000000,1.000000
3708372.292962,90.000000,1.000000
3708372.299281,9.000000,1.000000
3708372.299298,-17.000000,1.000000
3708372.306865,-16.000000,1.000000
3708372.306868,-1.000000,1.000000
3708372.315692,78.000000,1.000000
3708372.315695,103.000000,1.000000
3708372.325760,105.000000,1.000000
3708372.325764,89.000000,1.000000
3708372.329552,8.000000,1.000000
3708372.329556,-17.000000,1.000000
3708372.338387,-15.000000,1.000000
3708372.338391,2.000000,1.000000
3708372.347222,79.000000,1.000000
3708372.347229,102.000000,1.000000
3708372.354781,103.000000,1.000000
3708372.354784,84.000000,1.000000
3708372.362358,5.000000,1.000000
3708372.362365,-20.000000,1.000000
3708372.381283,-20.000000,1.000000
3708372.381289,-3.000000,1.000000
3708372.381295,76.000000,1.000000
3708372.381296,101.000000,1.000000
3708372.387590,103.000000,1.000000
3708372.387595,87.000000,1.000000
3708372.393911,7.000000,1.000000
3708372.393916,-18.000000,1.000000
3708372.402743,-19.000000,1.000000
3708372.402747,-3.000000,1.000000
3708372.410342,76.000000,1.000000
3708372.410348,100.000000,1.000000
3708372.416640,101.000000,1.000000
3708372.416646,84.000000,1.000000
3708372.425457,6.000000,1.000000
3708372.425461,-18.000000,1.000000
3708372.435376,-19.000000,1.000000
3708372.435381,-2.000000,1.000000
3708372.444201,77.000000,1.000000
3708372.444207,100.000000,1.000000
3708372.450503,104.000000,1.000000
3708372.450506,86.000000,1.000000
3708372.459327,7.000000,1.000000
3708372.459332,-17.000000,1.000000
3708372.466895,-18.000000,1.000000
3708372.466899,-2.000000,1.000000
3708372.473195,76.000000,1.000000
3708372.473199,103.000000,1.000000
3708372.487023,104.000000,1.000000
3708372.487026,88.000000,1.000000
3708372.489552,8.000000,1.000000
3708372.489556,-17.000000,1.000000
3708372.517144,-19.000000,1.000000
3708372.517164,-2.000000,1.000000
3708372.531012,76.000000,1.000000
3708372.531017,104.000000,1.000000
3708372.532285,106.000000,1.000000
3708372.532295,86.000000,1.000000
3708372.532302,7.000000,1.000000
3708372.532304,-16.000000,1.000000
3708372.534826,-17.000000,1.000000
3708372.534829,-2.000000,1.000000
3708372.541122,76.000000,1.000000
3708372.541126,101.000000,1.000000
3708372.547416,103.000000,1.000000
3708372.547420,88.000000,1.000000
3708372.553728,6.000000,1.000000
3708372.553734,-18.000000,1.000000
3708372.562557,-21.000000,1.000000
3708372.562564,-1.000000,1.000000
3708372.572648,76.000000,1.000000
3708372.572652,99.000000,1.000000
3708372.577520,101.000000,1.000000
3708372.577525,85.000000,1.000000
3708372.586362,8.000000,1.000000
3708372.586367,-18.000000,1.000000
3708372.595294,-21.000000,1.000000
3708372.595298,-3.000000,1.000000
3708372.604115,77.000000,1.000000
3708372.604118,100.000000,1.000000
3708372.610417,102.000000,1.000000
3708372.610422,87.000000,1.000000
3708372.619235,9.000000,1.000000
3708372.619240,-16.000000,1.000000
3708372.626840,-18.000000,1.000000
3708372.626846,-3.000000,1.000000
3708372.633147,77.000000,1.000000
3708372.633153,102.000000,1.000000
3708372.641950,102.000000,1.000000
3708372.641956,85.000000,1.000000
3708372.653313,7.000000,1.000000
3708372.653319,-18.000000,1.000000
3708372.658205,-19.000000,1.000000
3708372.658211,-3.000000,1.000000
3708372.667037,75.000000,1.000000
3708372.667044,100.000000,1.000000
3708372.675861,101.000000,1.000000
3708372.675865,88.000000,1.000000
3708372.693586,8.000000,1.000000
3708372.693593,-18.000000,1.000000
3708372.693600,-19.000000,1.000000
3708372.693601,-3.000000,1.000000
3708372.697382,76.000000,1.000000
3708372.697385,100.000000,1.000000
3708372.706183,102.000000,1.000000
3708372.706185,83.000000,1.000000
3708372.715001,6.000000,1.000000
3708372.715005,-18.000000,1.000000
3708372.722553,-20.000000,1.000000
3708372.722557,-3.000000,1.000000
3708372.729994,76.000000,1.000000
3708372.730000,102.000000,1.000000
3708372.741338,101.000000,1.000000
3708372.741342,84.000000,1.000000
3708372.747655,6.000000,1.000000
3708372.747669,-19.000000,1.000000
3708372.753980,-20.000000,1.000000
3708372.753988,-3.000000,1.000000
3708372.762799,77.000000,1.000000
3708372.762804,102.000000,1.000000
3708372.771607,103.000000,1.000000
3708372.771610,85.000000,1.000000
3708372.780475,7.000000,1.000000
3708372.780480,-19.000000,1.000000
3708372.785524,-20.000000,1.000000
3708372.785527,-2.000000,1.000000
3708372.794351,77.000000,1.000000
3708372.794355,101.000000,1.000000
3708372.816965,100.000000,1.000000
3708372.816971,86.000000,1.000000
3708372.830794,7.000000,1.000000
3708372.830800,-18.000000,1.000000
3708372.832066,-19.000000,1.000000
3708372.832069,-1.000000,1.000000
3708372.833335,76.000000,1.000000
3708372.833339,101.000000,1.000000
3708372.834602,103.000000,1.000000
3708372.834605,86.000000,1.000000
3708372.843450,7.000000,1.000000
3708372.843457,-17.000000,1.000000
3708372.851030,-18.000000,1.000000
3708372.851033,-3.000000,1.000000
3708372.857346,77.000000,1.000000
3708372.857352,101.000000,1.000000
3708372.866166,101.000000,1.000000
3708372.866172,86.000000,1.000000
3708372.874999,5.000000,1.000000
3708372.875006,-21.000000,1.000000
3708372.883828,-20.000000,1.000000
3708372.883836,-1.000000,1.000000
3708372.890139,76.000000,1.000000
3708372.890146,100.000000,1.000000
3708372.897695,99.000000,1.000000
3708372.897701,83.000000,1.000000
3708372.907589,6.000000,1.000000
3708372.907594,-18.000000,1.000000
3708372.913905,-20.000000,1.000000
3708372.913910,-5.000000,1.000000
3708372.921485,75.000000,1.000000
3708372.921488,100.000000,1.000000
3708372.931547,101.000000,1.000000
3708372.931553,85.000000,1.000000
3708372.949202,6.000000,1.000000
3708372.949209,-19.000000,1.000000
3708372.949214,-21.000000,1.000000
3708372.949215,-4.000000,1.000000
3708372.954229,76.000000,1.000000
3708372.954231,100.000000,1.000000
3708372.963042,100.000000,1.000000
3708372.963047,84.000000,1.000000
3708372.971885,6.000000,1.000000
3708372.971890,-19.000000,1.000000
3708372.978201,-21.000000,1.000000
3708372.978205,-2.000000,1.000000
3708372.987014,75.000000,1.000000
3708372.987018,100.000000,1.000000
3708372.995842,102.000000,1.000000
3708372.995846,84.000000,1.000000
3708373.003441,8.000000,1.000000
3708373.003447,-17.000000,1.000000
3708373.009759,-21.000000,1.000000
3708373.009763,-2.000000,1.000000
3708373.018582,76.000000,1.000000
3708373.018587,99.000000,1.000000
3708373.027418,99.000000,1.000000
3708373.027422,83.000000,1.000000
3708373.033712,5.000000,1.000000
3708373.033717,-22.000000,1.000000
3708373.042390,-23.000000,1.000000
3708373.042395,-6.000000,1.000000
3708373.051220,73.000000,1.000000
3708373.051225,96.000000,1.000000
3708373.059972,100.000000,1.000000
3708373.059976,83.000000,1.000000
3708373.065034,4.000000,1.000000
3708373.065039,-19.000000,1.000000
3708373.095353,-23.000000,1.000000
3708373.095358,-7.000000,1.000000
3708373.095365,73.000000,1.000000
3708373.095366,100.000000,1.000000
3708373.116811,101.000000,1.000000
3708373.116819,82.000000,1.000000
3708373.130813,3.000000,1.000000
3708373.130818,-22.000000,1.000000
3708373.132089,-23.000000,1.000000
3708373.132093,-5.000000,1.000000
3708373.133390,73.000000,1.000000
3708373.133393,99.000000,1.000000
3708373.135947,100.000000,1.000000
3708373.135951,83.000000,1.000000
3708373.141022,5.000000,1.000000
3708373.141025,-20.000000,1.000000
3708373.143552,-20.000000,1.000000
3708373.143556,-4.000000,1.000000
3708373.146079,76.000000,1.000000
3708373.146085,101.000000,1.000000
3708373.157399,101.000000,1.000000
3708373.157402,85.000000,1.000000
3708373.163695,6.000000,1.000000
3708373.163699,-20.000000,1.000000
3708373.168674,-21.000000,1.000000
3708373.168695,-4.000000,1.000000
3708373.178750,76.000000,1.000000
3708373.178757,102.000000,1.000000
3708373.187571,101.000000,1.000000
3708373.187574,83.000000,1.000000
3708373.193886,6.000000,1.000000
3708373.193891,-18.000000,1.000000
3708373.202733,-18.000000,1.000000
3708373.202740,-2.000000,1.000000
3708373.221595,73.000000,1.000000
3708373.221600,99.000000,1.000000
3708373.221607,101.000000,1.000000
3708373.221608,83.000000,1.000000
3708373.227918,5.000000,1.000000
3708373.227925,-22.000000,1.000000
3708373.236758,-24.000000,1.000000
3708373.236763,-5.000000,1.000000
3708373.241588,76.000000,1.000000
3708373.241591,99.000000,1.000000
3708373.254208,100.000000,1.000000
3708373.254212,85.000000,1.000000
3708373.258018,3.000000,1.000000
3708373.258025,-22.000000,1.000000
3708373.266856,-23.000000,1.000000
3708373.266866,-5.000000,1.000000
3708373.275688,75.000000,1.000000
3708373.275693,100.000000,1.000000
3708373.284504,101.000000,1.000000
3708373.284507,82.000000,1.000000
3708373.289551,5.000000,1.000000
3708373.289555,-21.000000,1.000000
3708373.298389,-20.000000,1.000000
3708373.298393,-5.000000,1.000000
3708373.307207,73.000000,1.000000
3708373.307214,100.000000,1.000000
3708373.313502,101.000000,1.000000
3708373.313509,84.000000,1.000000
3708373.324838,4.000000,1.000000
3708373.324846,-21.000000,1.000000
3708373.331014,-20.000000,1.000000
3708373.331017,-4.000000,1.000000
3708373.339841,73.000000,1.000000
3708373.339845,100.000000,1.000000
3708373.346139,101.000000,1.000000
3708373.346145,84.000000,1.000000
3708373.355012,4.000000,1.000000
3708373.355017,-21.000000,1.000000
3708373.373929,-21.000000,1.000000
3708373.373935,-3.000000,1.000000
3708373.373942,75.000000,1.000000
3708373.373966,100.000000,1.000000
3708373.377761,101.000000,1.000000
3708373.377766,85.000000,1.000000
3708373.386597,4.000000,1.000000
3708373.386604,-21.000000,1.000000
3708373.394159,-20.000000,1.000000
3708373.394163,-2.000000,1.000000
3708373.415533,73.000000,1.000000
3708373.415538,100.000000,1.000000
3708373.430696,100.000000,1.000000
3708373.430700,83.000000,1.000000
3708373.437001,4.000000,1.000000
3708373.437004,-21.000000,1.000000
3708373.437010,-22.000000,1.000000
3708373.437011,-5.000000,1.000000
3708373.437017,73.000000,1.000000
3708373.437018,100.000000,1.000000
3708373.443306,99.000000,1.000000
3708373.443312,83.000000,1.000000
3708373.450849,5.000000,1.000000
3708373.450854,-20.000000,1.000000
3708373.459712,-23.000000,1.000000
3708373.459717,-5.000000,1.000000
3708373.466008,75.000000,1.000000
3708373.466015,103.000000,1.000000
3708373.474813,102.000000,1.000000
3708373.474816,83.000000,1.000000
3708373.483622,5.000000,1.000000
3708373.483628,-22.000000,1.000000
3708373.488708,-20.000000,1.000000
3708373.488773,-2.000000,1.000000
3708373.501304,77.000000,1.000000
3708373.501308,101.000000,1.000000
3708373.507618,100.000000,1.000000
3708373.507625,81.000000,1.000000
3708373.516477,4.000000,1.000000
3708373.516489,-22.000000,1.000000
3708373.522822,-22.000000,1.000000
3708373.522825,-5.000000,1.000000
3708373.541379,73.000000,1.000000
3708373.541384,98.000000,1.000000
3708373.541391,101.000000,1.000000
3708373.541392,84.000000,1.000000
3708373.547693,4.000000,1.000000
3708373.547700,-20.000000,1.000000
3708373.552810,-20.000000,1.000000
3708373.552813,-5.000000,1.000000
3708373.562805,74.000000,1.000000
3708373.562810,99.000000,1.000000
3708373.572889,99.000000,1.000000
3708373.572892,83.000000,1.000000
3708373.579204,6.000000,1.000000
3708373.579218,-20.000000,1.000000
3708373.590570,-23.000000,1.000000
3708373.590574,-5.000000,1.000000
3708373.596914,75.000000,1.000000
3708373.596917,100.000000,1.000000
3708373.604276,102.000000,1.000000
3708373.604279,85.000000,1.000000
3708373.611851,5.000000,1.000000
3708373.611856,-20.000000,1.000000
3708373.619416,-21.000000,1.000000
3708373.619423,-3.000000,1.000000
3708373.625726,75.000000,1.000000
3708373.625732,101.000000,1.000000
3708373.642272,101.000000,1.000000
3708373.642309,84.000000,1.000000
3708373.642327,7.000000,1.000000
3708373.642329,-20.000000,1.000000
3708373.661240,-20.000000,1.000000
3708373.661247,-2.000000,1.000000
3708373.661254,75.000000,1.000000
3708373.661255,98.000000,1.000000
3708373.667554,102.000000,1.000000
3708373.667558,82.000000,1.000000
3708373.673867,5.000000,1.000000
3708373.673871,-20.000000,1.000000
3708373.685206,-21.000000,1.000000
3708373.685215,-2.000000,1.000000
3708373.691506,75.000000,1.000000
3708373.691510,100.000000,1.000000
3708373.715466,101.000000,1.000000
3708373.715471,84.000000,1.000000
3708373.730371,5.000000,1.000000
3708373.730374,-20.000000,1.000000
3708373.731648,-20.000000,1.000000
3708373.731651,-4.000000,1.000000
3708373.732918,74.000000,1.000000
3708373.732921,98.000000,1.000000
3708373.735451,101.000000,1.000000
3708373.735456,83.000000,1.000000
3708373.739253,5.000000,1.000000
3708373.739260,-20.000000,1.000000
3708373.746625,-21.000000,1.000000
3708373.746633,-8.000000,1.000000
3708373.752927,72.000000,1.000000
3708373.752932,97.000000,1.000000
3708373.764089,99.000000,1.000000
3708373.764093,83.000000,1.000000
3708373.771591,3.000000,1.000000
3708373.771597,-22.000000,1.000000
3708373.780406,-22.000000,1.000000
3708373.780410,-6.000000,1.000000
3708373.786736,73.000000,1.000000
3708373.786740,97.000000,1.000000
3708373.795363,100.000000,1.000000
3708373.795366,82.000000,1.000000
3708373.814301,2.000000,1.000000
3708373.814308,-21.000000,1.000000
3708373.814314,-24.000000,1.000000
3708373.814315,-7.000000,1.000000
3708373.816842,73.000000,1.000000
3708373.816847,98.000000,1.000000
3708373.825652,100.000000,1.000000
3708373.825657,82.000000,1.000000
3708373.834473,3.000000,1.000000
3708373.834479,-23.000000,1.000000
3708373.844405,-24.000000,1.000000
3708373.844409,-6.000000,1.000000
3708373.850704,73.000000,1.000000
3708373.850715,98.000000,1.000000
3708373.859302,100.000000,1.000000
3708373.859305,82.000000,1.000000
3708373.869406,4.000000,1.000000
3708373.869426,-22.000000,1.000000
3708373.875819,-24.000000,1.000000
3708373.875822,-6.000000,1.000000
3708373.883380,73.000000,1.000000
3708373.883397,98.000000,1.000000
3708373.892062,98.000000,1.000000
3708373.892066,81.000000,1.000000
3708373.900911,5.000000,1.000000
3708373.900917,-20.000000,1.000000
3708373.905949,-23.000000,1.000000
3708373.905952,-4.000000,1.000000
3708373.924601,73.000000,1.000000
3708373.924605,99.000000,1.000000
3708373.924612,102.000000,1.000000
3708373.924613,83.000000,1.000000
3708373.930968,5.000000,1.000000
3708373.930975,-21.000000,1.000000
3708373.942391,-23.000000,1.000000
3708373.942396,-4.000000,1.000000
3708373.944918,75.000000,1.000000
3708373.944924,99.000000,1.000000
3708373.965045,100.000000,1.000000
3708373.965050,84.000000,1.000000
3708373.965056,6.000000,1.000000
3708373.965058,-21.000000,1.000000
3708373.971380,-20.000000,1.000000
3708373.971385,-4.000000,1.000000
3708373.977679,73.000000,1.000000
3708373.977685,100.000000,1.000000
3708373.986493,101.000000,1.000000
3708373.986499,81.000000,1.000000
3708373.995326,3.000000,1.000000
3708373.995333,-20.000000,1.000000
3708374.016788,-22.000000,1.000000
3708374.016798,-5.000000,1.000000
3708374.030468,73.000000,1.000000
3708374.030473,99.000000,1.000000
3708374.031743,100.000000,1.000000
3708374.031747,83.000000,1.000000
3708374.034287,5.000000,1.000000
3708374.034292,-21.000000,1.000000
3708374.035558,-24.000000,1.000000
3708374.035562,-4.000000,1.000000
3708374.043119,74.000000,1.000000
3708374.043125,101.000000,1.000000
3708374.061833,100.000000,1.000000
3708374.061838,85.000000,1.000000
3708374.061845,6.000000,1.000000
3708374.061846,-21.000000,1.000000
3708374.068148,-22.000000,1.000000
3708374.068154,-4.000000,1.000000
3708374.075702,74.000000,1.000000
3708374.075708,99.000000,1.000000
3708374.082004,101.000000,1.000000
3708374.082010,82.000000,1.000000
3708374.100873,5.000000,1.000000
3708374.100881,-20.000000,1.000000
3708374.100910,-22.000000,1.000000
3708374.100911,-5.000000,1.000000
3708374.107234,74.000000,1.000000
3708374.107238,99.000000,1.000000
3708374.113522,100.000000,1.000000
3708374.113525,83.000000,1.000000
3708374.124850,5.000000,1.000000
3708374.124856,-21.000000,1.000000
3708374.131159,-24.000000,1.000000
3708374.131164,-6.000000,1.000000
3708374.137491,75.000000,1.000000
3708374.137496,99.000000,1.000000
3708374.146319,100.000000,1.000000
3708374.146322,82.000000,1.000000
3708374.155137,4.000000,1.000000
3708374.155141,-21.000000,1.000000
3708374.163957,-21.000000,1.000000
3708374.163963,-4.000000,1.000000
3708374.170278,73.000000,1.000000
3708374.170285,99.000000,1.000000
3708374.179086,99.000000,1.000000
3708374.179091,83.000000,1.000000
3708374.187918,6.000000,1.000000
3708374.187925,-20.000000,1.000000
3708374.194234,-20.000000,1.000000
3708374.194245,-4.000000,1.000000
3708374.205538,74.000000,1.000000
3708374.205541,102.000000,1.000000
3708374.211853,100.000000,1.000000
3708374.211856,83.000000,1.000000
3708374.230717,3.000000,1.000000
3708374.230722,-20.000000,1.000000
3708374.230729,-20.000000,1.000000
3708374.230731,-5.000000,1.000000
3708374.233256,73.000000,1.000000
3708374.233262,99.000000,1.000000
3708374.243321,99.000000,1.000000
3708374.243324,84.000000,1.000000
3708374.250931,5.000000,1.000000
3708374.250936,-21.000000,1.000000
3708374.257255,-22.000000,1.000000
3708374.257259,-4.000000,1.000000
3708374.266120,76.000000,1.000000
3708374.266126,101.000000,1.000000
3708374.274934,103.000000,1.000000
3708374.274937,85.000000,1.000000
3708374.283767,6.000000,1.000000
3708374.283773,-20.000000,1.000000
3708374.289995,-21.000000,1.000000
3708374.290011,-3.000000,1.000000
3708374.316394,76.000000,1.000000
3708374.316400,100.000000,1.000000
3708374.330276,99.000000,1.000000
3708374.330281,79.000000,1.000000
3708374.331546,2.000000,1.000000
3708374.331549,-23.000000,1.000000
3708374.332813,-22.000000,1.000000
3708374.332819,-3.000000,1.000000
3708374.335344,71.000000,1.000000
3708374.335346,97.000000,1.000000
3708374.339121,99.000000,1.000000
3708374.339124,80.000000,1.000000
3708374.373097,3.000000,1.000000
3708374.373103,-22.000000,1.000000
3708374.373109,-25.000000,1.000000
3708374.373110,-8.000000,1.000000
3708374.374373,72.000000,1.000000
3708374.374375,99.000000,1.000000
3708374.376949,101.000000,1.000000
3708374.376957,81.000000,1.000000
3708374.378233,3.000000,1.000000
3708374.378237,-22.000000,1.000000
3708374.389628,-23.000000,1.000000
3708374.389633,-7.000000,1.000000
3708374.394679,74.000000,1.000000
3708374.394683,100.000000,1.000000
3708374.403490,99.000000,1.000000
3708374.403496,81.000000,1.000000
3708374.409819,2.000000,1.000000
3708374.409824,-23.000000,1.000000
3708374.418657,-22.000000,1.000000
3708374.418665,-6.000000,1.000000
3708374.427488,73.000000,1.000000
3708374.427514,99.000000,1.000000
3708374.433804,99.000000,1.000000
3708374.433810,82.000000,1.000000
3708374.442628,2.000000,1.000000
3708374.442633,-23.000000,1.000000
3708374.450191,-22.000000,1.000000
3708374.450198,-6.000000,1.000000
3708374.462647,72.000000,1.000000
3708374.462654,96.000000,1.000000
3708374.466438,97.000000,1.000000
3708374.466443,79.000000,1.000000
3708374.485428,-1.000000,1.000000
3708374.485434,-24.000000,1.000000
3708374.485441,-26.000000,1.000000
3708374.485442,-6.000000,1.000000
3708374.491748,74.000000,1.000000
3708374.491751,99.000000,1.000000
3708374.510663,99.000000,1.000000
3708374.510668,81.000000,1.000000
3708374.510675,3.000000,1.000000
3708374.510676,-23.000000,1.000000
3708374.513217,-24.000000,1.000000
3708374.513222,-4.000000,1.000000
3708374.522042,72.000000,1.000000
3708374.522047,97.000000,1.000000
3708374.530869,98.000000,1.000000
3708374.530874,82.000000,1.000000
3708374.537187,2.000000,1.000000
3708374.537192,-22.000000,1.000000
3708374.547260,-23.000000,1.000000
3708374.547265,-7.000000,1.000000
3708374.557342,72.000000,1.000000
3708374.557346,98.000000,1.000000
3708374.563631,99.000000,1.000000
3708374.563634,83.000000,1.000000
3708374.569941,4.000000,1.000000
3708374.569946,-24.000000,1.000000
3708374.578723,-25.000000,1.000000
3708374.578727,-6.000000,1.000000
3708374.587541,73.000000,1.000000
3708374.587547,95.000000,1.000000
3708374.593861,98.000000,1.000000
3708374.593875,83.000000,1.000000
3708374.616598,5.000000,1.000000
3708374.616604,-22.000000,1.000000
3708374.630444,-25.000000,1.000000
3708374.630448,-6.000000,1.000000
3708374.631719,72.000000,1.000000
3708374.631725,99.000000,1.000000
3708374.634316,100.000000,1.000000
3708374.634322,81.000000,1.000000
3708374.636918,3.000000,1.000000
3708374.636922,-22.000000,1.000000
3708374.641958,-25.000000,1.000000
3708374.641965,-9.000000,1.000000
3708374.660842,73.000000,1.000000
3708374.660846,99.000000,1.000000
3708374.660853,101.000000,1.000000
3708374.660854,84.000000,1.000000
3708374.667183,4.000000,1.000000
3708374.667190,-21.000000,1.000000
3708374.673490,-23.000000,1.000000
3708374.673493,-5.000000,1.000000
3708374.683423,74.000000,1.000000
3708374.683429,99.000000,1.000000
3708374.692242,98.000000,1.000000
3708374.692246,82.000000,1.000000
3708374.697303,3.000000,1.000000
3708374.697308,-22.000000,1.000000
3708374.706186,-25.000000,1.000000
3708374.706191,-7.000000,1.000000
3708374.715014,72.000000,1.000000
3708374.715021,99.000000,1.000000
3708374.726346,101.000000,1.000000
3708374.726352,84.000000,1.000000
3708374.730142,5.000000,1.000000
3708374.730147,-22.000000,1.000000
3708374.738970,-23.000000,1.000000
3708374.738976,-7.000000,1.000000
3708374.746532,72.000000,1.000000
3708374.746538,97.000000,1.000000
3708374.752832,98.000000,1.000000
3708374.752838,82.000000,1.000000
3708374.762984,3.000000,1.000000
3708374.762988,-22.000000,1.000000
3708374.781885,-23.000000,1.000000
3708374.781894,-7.000000,1.000000
3708374.781901,73.000000,1.000000
3708374.781902,98.000000,1.000000
3708374.788206,97.000000,1.000000
3708374.788209,83.000000,1.000000
3708374.795792,5.000000,1.000000
3708374.795798,-20.000000,1.000000
3708374.802115,-25.000000,1.000000
3708374.802118,-6.000000,1.000000
3708374.813475,72.000000,1.000000
3708374.813481,99.000000,1.000000
3708374.817261,103.000000,1.000000
3708374.817266,84.000000,1.000000
3708374.826146,3.000000,1.000000
3708374.826161,-23.000000,1.000000
3708374.834808,-23.000000,1.000000
3708374.834811,-7.000000,1.000000
3708374.843629,72.000000,1.000000
3708374.843633,97.000000,1.000000
3708374.849933,99.000000,1.000000
3708374.849938,82.000000,1.000000
3708374.858809,3.000000,1.000000
3708374.858814,-22.000000,1.000000
3708374.867637,-24.000000,1.000000
3708374.867641,-5.000000,1.000000
3708374.873964,73.000000,1.000000
3708374.873971,97.000000,1.000000
3708374.882782,99.000000,1.000000
3708374.882788,81.000000,1.000000
3708374.892856,3.000000,1.000000
3708374.892862,-24.000000,1.000000
3708374.916662,-24.000000,1.000000
3708374.916666,-8.000000,1.000000
3708374.930537,71.000000,1.000000
3708374.930542,98.000000,1.000000
3708374.931813,99.000000,1.000000
3708374.931818,82.000000,1.000000
3708374.934337,2.000000,1.000000
3708374.934340,-21.000000,1.000000
3708374.936889,-22.000000,1.000000
3708374.936894,-7.000000,1.000000
3708374.938157,71.000000,1.000000
3708374.938159,97.000000,1.000000
3708374.950750,99.000000,1.000000
3708374.950756,83.000000,1.000000
3708374.954549,2.000000,1.000000
3708374.954554,-23.000000,1.000000
3708374.963406,-23.000000,1.000000
3708374.963412,-6.000000,1.000000
3708374.974728,71.000000,1.000000
3708374.974732,98.000000,1.000000
3708374.981056,99.000000,1.000000
3708374.981063,81.000000,1.000000
3708374.986111,3.000000,1.000000
3708374.986116,-22.000000,1.000000
3708374.994948,-24.000000,1.000000
3708374.994952,-7.000000,1.000000
3708375.003777,72.000000,1.000000
3708375.003781,97.000000,1.000000
3708375.010072,99.000000,1.000000
3708375.010078,82.000000,1.000000
3708375.018908,3.000000,1.000000
3708375.018913,-21.000000,1.000000
3708375.027756,-24.000000,1.000000
3708375.027761,-9.000000,1.000000
3708375.032794,71.000000,1.000000
3708375.032800,97.000000,1.000000
3708375.042735,97.000000,1.000000
3708375.042737,78.000000,1.000000
3708375.054087,3.000000,1.000000
3708375.054094,-23.000000,1.000000
3708375.057892,-25.000000,1.000000
3708375.057896,-9.000000,1.000000
3708375.066716,71.000000,1.000000
3708375.066720,94.000000,1.000000
3708375.075533,96.000000,1.000000
3708375.075536,81.000000,1.000000
3708375.089391,2.000000,1.000000
3708375.089396,-25.000000,1.000000
3708375.091929,-25.000000,1.000000
3708375.091934,-8.000000,1.000000
3708375.098251,72.000000,1.000000
3708375.098255,97.000000,1.000000
3708375.107063,99.000000,1.000000
3708375.107066,81.000000,1.000000
3708375.113371,3.000000,1.000000
3708375.113377,-25.000000,1.000000
3708375.122252,-25.000000,1.000000
3708375.122256,-12.000000,1.000000
3708375.133613,69.000000,1.000000
3708375.133619,94.000000,1.000000
3708375.137404,97.000000,1.000000
3708375.137410,79.000000,1.000000
3708375.147275,0.000000,1.000000
3708375.147280,-25.000000,1.000000
3708375.154839,-27.000000,1.000000
3708375.154843,-9.000000,1.000000
3708375.163682,69.000000,1.000000
3708375.163689,93.000000,1.000000
3708375.169984,94.000000,1.000000
3708375.169990,79.000000,1.000000
3708375.178881,1.000000,1.000000
3708375.178887,-24.000000,1.000000
3708375.192750,-26.000000,1.000000
3708375.192759,-10.000000,1.000000
3708375.195283,69.000000,1.000000
3708375.195289,94.000000,1.000000
3708375.220499,93.000000,1.000000
3708375.220505,78.000000,1.000000
3708375.229347,1.000000,1.000000
3708375.229351,-25.000000,1.000000
3708375.234386,-27.000000,1.000000
3708375.234392,-10.000000,1.000000
3708375.238001,68.000000,1.000000
3708375.238005,95.000000,1.000000
3708375.239273,98.000000,1.000000
3708375.239275,79.000000,1.000000
3708375.244358,-2.000000,1.000000
3708375.244364,-27.000000,1.000000
3708375.253174,-28.000000,1.000000
3708375.253178,-10.000000,1.000000
3708375.259478,69.000000,1.000000
3708375.259484,95.000000,1.000000
3708375.268301,95.000000,1.000000
3708375.268305,79.000000,1.000000
3708375.274614,1.000000,1.000000
3708375.274619,-26.000000,1.000000
3708375.283455,-27.000000,1.000000
3708375.283460,-9.000000,1.000000
3708375.293582,70.000000,1.000000
3708375.293586,95.000000,1.000000
3708375.297371,95.000000,1.000000
3708375.297377,77.000000,1.000000
3708375.306205,1.000000,1.000000
3708375.306211,-25.000000,1.000000
3708375.315057,-26.000000,1.000000
3708375.315061,-8.000000,1.000000
3708375.333949,68.000000,1.000000
3708375.333954,94.000000,1.000000
3708375.333961,94.000000,1.000000
3708375.333962,77.000000,1.000000
3708375.337755,-1.000000,1.000000
3708375.337761,-25.000000,1.000000
3708375.346600,-26.000000,1.000000
3708375.346606,-9.000000,1.000000
3708375.355424,68.000000,1.000000
3708375.355428,93.000000,1.000000
3708375.373046,96.000000,1.000000
3708375.373051,81.000000,1.000000
3708375.373058,2.000000,1.000000
3708375.373072,-25.000000,1.000000
3708375.376860,-25.000000,1.000000
3708375.376864,-8.000000,1.000000
3708375.385692,70.000000,1.000000
3708375.385696,94.000000,1.000000
3708375.394507,96.000000,1.000000
3708375.394510,78.000000,1.000000
3708375.404617,-1.000000,1.000000
3708375.404622,-26.000000,1.000000
3708375.410963,-27.000000,1.000000
3708375.410965,-8.000000,1.000000
3708375.418561,68.000000,1.000000
3708375.418567,94.000000,1.000000
3708375.427380,95.000000,1.000000
3708375.427384,79.000000,1.000000
3708375.433692,-2.000000,1.000000
3708375.433699,-26.000000,1.000000
3708375.442522,-27.000000,1.000000
3708375.442530,-10.000000,1.000000
3708375.451347,69.000000,1.000000
3708375.451353,95.000000,1.000000
3708375.460161,95.000000,1.000000
3708375.460164,77.000000,1.000000
3708375.465227,-1.000000,1.000000
3708375.465236,-26.000000,1.000000
3708375.477818,-27.000000,1.000000
3708375.477825,-10.000000,1.000000
3708375.484119,69.000000,1.000000
3708375.484122,95.000000,1.000000
3708375.490408,96.000000,1.000000
3708375.490411,78.000000,1.000000
3708375.516900,-2.000000,1.000000
3708375.516907,-28.000000,1.000000
3708375.530775,-27.000000,1.000000
3708375.530861,-10.000000,1.000000
3708375.530927,67.000000,1.000000
3708375.530930,94.000000,1.000000
3708375.533520,95.000000,1.000000
3708375.533524,76.000000,1.000000
3708375.534805,0.000000,1.000000
3708375.534818,-24.000000,1.000000
3708375.537429,-26.000000,1.000000
3708375.537432,-10.000000,1.000000
3708375.547494,69.000000,1.000000
3708375.547500,95.000000,1.000000
3708375.553796,97.000000,1.000000
3708375.553800,77.000000,1.000000
3708375.562654,-3.000000,1.000000
3708375.562659,-29.000000,1.000000
3708375.571499,-31.000000,1.000000
3708375.571503,-10.000000,1.000000
3708375.580321,69.000000,1.000000
3708375.580328,93.000000,1.000000
3708375.586618,95.000000,1.000000
3708375.586625,77.000000,1.000000
3708375.595441,-1.000000,1.000000
3708375.595446,-27.000000,1.000000
3708375.604256,-29.000000,1.000000
3708375.604260,-11.000000,1.000000
3708375.610569,68.000000,1.000000
3708375.610572,92.000000,1.000000
3708375.619441,93.000000,1.000000
3708375.619444,78.000000,1.000000
3708375.630770,-2.000000,1.000000
3708375.630810,-28.000000,1.000000
3708375.657282,-27.000000,1.000000
3708375.657287,-10.000000,1.000000
3708375.657295,69.000000,1.000000
3708375.657296,94.000000,1.000000
3708375.657302,93.000000,1.000000
3708375.657303,76.000000,1.000000
3708375.658571,-2.000000,1.000000
3708375.658575,-27.000000,1.000000
3708375.669913,-27.000000,1.000000
3708375.669917,-13.000000,1.000000
3708375.673695,69.000000,1.000000
3708375.673701,94.000000,1.000000
3708375.682510,93.000000,1.000000
3708375.682515,77.000000,1.000000
3708375.691343,-3.000000,1.000000
3708375.691349,-28.000000,1.000000
3708375.697643,-28.000000,1.000000
3708375.697647,-10.000000,1.000000
3708375.706246,67.000000,1.000000
3708375.706251,92.000000,1.000000
3708375.717585,93.000000,1.000000
3708375.717588,75.000000,1.000000
3708375.723912,-2.000000,1.000000
3708375.723919,-26.000000,1.000000
3708375.730217,-28.000000,1.000000
3708375.730220,-11.000000,1.000000
3708375.739031,66.000000,1.000000
3708375.739035,94.000000,1.000000
3708375.757907,94.000000,1.000000
3708375.757912,77.000000,1.000000
3708375.757920,-2.000000,1.000000
3708375.757922,-28.000000,1.000000
3708375.762970,-29.000000,1.000000
3708375.762973,-10.000000,1.000000
3708375.770306,68.000000,1.000000
3708375.770312,93.000000,1.000000
3708375.779126,93.000000,1.000000
3708375.779129,76.000000,1.000000
3708375.792987,-1.000000,1.000000
3708375.792993,-26.000000,1.000000
3708375.816918,-29.000000,1.000000
3708375.816924,-11.000000,1.000000
3708375.830784,68.000000,1.000000
3708375.830788,92.000000,1.000000
3708375.832057,93.000000,1.000000
3708375.832060,76.000000,1.000000
3708375.833324,-1.000000,1.000000
3708375.833327,-27.000000,1.000000
3708375.834592,-30.000000,1.000000
3708375.834594,-13.000000,1.000000
3708375.837116,68.000000,1.000000
3708375.837122,93.000000,1.000000
3708375.842155,93.000000,1.000000
3708375.842162,77.000000,1.000000
3708375.850969,-2.000000,1.000000
3708375.850976,-28.000000,1.000000
3708375.859789,-28.000000,1.000000
3708375.859794,-12.000000,1.000000
3708375.866093,66.000000,1.000000
3708375.866099,92.000000,1.000000
3708375.876039,93.000000,1.000000
3708375.876042,77.000000,1.000000
3708375.886210,-3.000000,1.000000
3708375.886216,-27.000000,1.000000
3708375.890000,-28.000000,1.000000
3708375.890016,-11.000000,1.000000
3708375.898847,67.000000,1.000000
3708375.898851,91.000000,1.000000
3708375.917577,91.000000,1.000000
3708375.917583,76.000000,1.000000
3708375.917599,-6.000000,1.000000
3708375.917601,-32.000000,1.000000
3708375.923911,-29.000000,1.000000
3708375.923915,-11.000000,1.000000
3708375.929985,68.000000,1.000000
3708375.929991,92.000000,1.000000
3708375.938649,93.000000,1.000000
3708375.938651,78.000000,1.000000
3708375.947477,-1.000000,1.000000
3708375.947493,-29.000000,1.000000
3708375.953817,-29.000000,1.000000
3708375.953823,-12.000000,1.000000
3708375.962681,67.000000,1.000000
3708375.962683,92.000000,1.000000
3708375.974019,94.000000,1.000000
3708375.974024,76.000000,1.000000
3708375.977814,-2.000000,1.000000
3708375.977818,-27.000000,1.000000
3708375.986647,-28.000000,1.000000
3708375.986654,-11.000000,1.000000
3708375.995476,66.000000,1.000000
3708375.995480,92.000000,1.000000
3708376.003027,93.000000,1.000000
3708376.003030,77.000000,1.000000
3708376.009321,-2.000000,1.000000
3708376.009325,-29.000000,1.000000
3708376.018163,-27.000000,1.000000
3708376.018168,-11.000000,1.000000
3708376.028140,68.000000,1.000000
3708376.028145,93.000000,1.000000
3708376.034456,93.000000,1.000000
3708376.034461,76.000000,1.000000
3708376.049568,-3.000000,1.000000
3708376.049574,-28.000000,1.000000
3708376.050840,-28.000000,1.000000
3708376.050844,-11.000000,1.000000
3708376.062070,68.000000,1.000000
3708376.062074,92.000000,1.000000
3708376.067112,93.000000,1.000000
3708376.067115,75.000000,1.000000
3708376.073427,-3.000000,1.000000
3708376.073432,-28.000000,1.000000
3708376.082269,-28.000000,1.000000
3708376.082274,-12.000000,1.000000
3708376.091093,67.000000,1.000000
3708376.091097,91.000000,1.000000
3708376.117378,94.000000,1.000000
3708376.117383,76.000000,1.000000
3708376.129977,-3.000000,1.000000
3708376.129980,-25.000000,1.000000
3708376.131249,-28.000000,1.000000
3708376.131252,-13.000000,1.000000
3708376.135053,67.000000,1.000000
3708376.135059,89.000000,1.000000
3708376.135065,93.000000,1.000000
3708376.135070,78.000000,1.000000
3708376.139949,-2.000000,1.000000
3708376.139955,-27.000000,1.000000
3708376.146511,-28.000000,1.000000
3708376.146517,-10.000000,1.000000
3708376.155329,71.000000,1.000000
3708376.155334,92.000000,1.000000
3708376.164140,93.000000,1.000000
3708376.164146,77.000000,1.000000
3708376.169197,-2.000000,1.000000
3708376.169202,-27.000000,1.000000
3708376.178018,-29.000000,1.000000
3708376.178025,-12.000000,1.000000
3708376.198033,68.000000,1.000000
3708376.198040,93.000000,1.000000
3708376.198047,93.000000,1.000000
3708376.198050,77.000000,1.000000
3708376.204354,-1.000000,1.000000
3708376.204360,-28.000000,1.000000
3708376.210663,-28.000000,1.000000
3708376.210669,-11.000000,1.000000
3708376.220762,66.000000,1.000000
3708376.220769,91.000000,1.000000
3708376.227071,93.000000,1.000000
3708376.227076,75.000000,1.000000
3708376.233430,-3.000000,1.000000
3708376.233435,-27.000000,1.000000
3708376.242253,-27.000000,1.000000
3708376.242258,-12.000000,1.000000
3708376.251077,66.000000,1.000000
3708376.251080,93.000000,1.000000
3708376.257366,92.000000,1.000000
3708376.257369,76.000000,1.000000
3708376.267541,-2.000000,1.000000
3708376.267556,-28.000000,1.000000
3708376.275286,-29.000000,1.000000
3708376.275289,-12.000000,1.000000
3708376.284103,64.000000,1.000000
3708376.284107,89.000000,1.000000
3708376.290397,90.000000,1.000000
3708376.290400,75.000000,1.000000
3708376.301807,-2.000000,1.000000
3708376.301820,-29.000000,1.000000
3708376.308140,-32.000000,1.000000
3708376.308144,-12.000000,1.000000
3708376.314433,65.000000,1.000000
3708376.314439,89.000000,1.000000
3708376.323245,92.000000,1.000000
3708376.323248,75.000000,1.000000
3708376.340876,-4.000000,1.000000
3708376.340882,-29.000000,1.000000
3708376.340890,-29.000000,1.000000
3708376.340892,-15.000000,1.000000
3708376.347182,66.000000,1.000000
3708376.347188,90.000000,1.000000
3708376.353477,91.000000,1.000000
3708376.353483,76.000000,1.000000
3708376.362298,-3.000000,1.000000
3708376.362303,-28.000000,1.000000
3708376.370833,-30.000000,1.000000
3708376.370841,-14.000000,1.000000
3708376.377156,63.000000,1.000000
3708376.377160,91.000000,1.000000
3708376.385968,91.000000,1.000000
3708376.385971,75.000000,1.000000
3708376.394781,-6.000000,1.000000
3708376.394787,-32.000000,1.000000
3708376.416194,-30.000000,1.000000
3708376.416199,-14.000000,1.000000
3708376.431112,65.000000,1.000000
3708376.431121,91.000000,1.000000
3708376.432389,90.000000,1.000000
3708376.432393,75.000000,1.000000
3708376.434943,-3.000000,1.000000
3708376.434951,-30.000000,1.000000
3708376.436223,-31.000000,1.000000
3708376.436225,-15.000000,1.000000
3708376.445037,66.000000,1.000000
3708376.445044,89.000000,1.000000
3708376.451337,92.000000,1.000000
3708376.451340,76.000000,1.000000
3708376.460204,-2.000000,1.000000
3708376.460209,-29.000000,1.000000
3708376.469041,-30.000000,1.000000
3708376.469047,-12.000000,1.000000
3708376.472826,64.000000,1.000000
3708376.472829,92.000000,1.000000
3708376.481626,93.000000,1.000000
3708376.481629,74.000000,1.000000
3708376.501925,-4.000000,1.000000
3708376.501932,-28.000000,1.000000
3708376.504453,-31.000000,1.000000
3708376.504457,-14.000000,1.000000
3708376.506999,65.000000,1.000000
3708376.507003,89.000000,1.000000
3708376.515819,94.000000,1.000000
3708376.515824,74.000000,1.000000
3708376.524665,-3.000000,1.000000
3708376.524674,-29.000000,1.000000
3708376.530978,-31.000000,1.000000
3708376.530981,-13.000000,1.000000
3708376.538558,65.000000,1.000000
3708376.538565,91.000000,1.000000
3708376.547393,93.000000,1.000000
3708376.547400,75.000000,1.000000
3708376.553705,-4.000000,1.000000
3708376.553710,-27.000000,1.000000
3708376.562519,-30.000000,1.000000
3708376.562525,-13.000000,1.000000
3708376.571334,66.000000,1.000000
3708376.571337,90.000000,1.000000
3708376.580154,93.000000,1.000000
3708376.580159,76.000000,1.000000
3708376.586247,-2.000000,1.000000
3708376.586265,-27.000000,1.000000
3708376.600346,-31.000000,1.000000
3708376.600362,-14.000000,1.000000
3708376.601727,65.000000,1.000000
3708376.601729,90.000000,1.000000
3708376.610643,91.000000,1.000000
3708376.610649,73.000000,1.000000
3708376.619490,-6.000000,1.000000
3708376.619497,-30.000000,1.000000
3708376.630832,-31.000000,1.000000
3708376.630845,-13.000000,1.000000
3708376.634627,66.000000,1.000000
3708376.634633,90.000000,1.000000
3708376.643440,92.000000,1.000000
3708376.643444,75.000000,1.000000
3708376.651068,-3.000000,1.000000
3708376.651075,-28.000000,1.000000
3708376.657372,-31.000000,1.000000
3708376.657378,-14.000000,1.000000
3708376.666194,64.000000,1.000000
3708376.666199,89.000000,1.000000
3708376.674996,93.000000,1.000000
3708376.674999,74.000000,1.000000
3708376.683895,-5.000000,1.000000
3708376.683901,-30.000000,1.000000
3708376.689018,-30.000000,1.000000
3708376.689021,-13.000000,1.000000
3708376.716704,66.000000,1.000000
3708376.716710,92.000000,1.000000
3708376.730346,93.000000,1.000000
3708376.730351,76.000000,1.000000
3708376.731619,-2.000000,1.000000
3708376.731624,-28.000000,1.000000
3708376.732893,-31.000000,1.000000
3708376.732899,-11.000000,1.000000
3708376.735421,67.000000,1.000000
3708376.735424,90.000000,1.000000
3708376.739220,92.000000,1.000000
3708376.739224,74.000000,1.000000
3708376.753091,-4.000000,1.000000
3708376.753096,-28.000000,1.000000
3708376.755619,-31.000000,1.000000
3708376.755622,-14.000000,1.000000
3708376.763174,65.000000,1.000000
3708376.763177,91.000000,1.000000
3708376.780836,92.000000,1.000000
3708376.780841,74.000000,1.000000
3708376.780848,-5.000000,1.000000
3708376.780849,-30.000000,1.000000
3708376.787140,-31.000000,1.000000
3708376.787145,-14.000000,1.000000
3708376.793476,65.000000,1.000000
3708376.793484,91.000000,1.000000
3708376.802287,92.000000,1.000000
3708376.802293,76.000000,1.000000
3708376.811146,-5.000000,1.000000
3708376.811153,-30.000000,1.000000
3708376.819840,-31.000000,1.000000
3708376.819845,-16.000000,1.000000
3708376.825022,65.000000,1.000000
3708376.825025,91.000000,1.000000
3708376.835104,91.000000,1.000000
3708376.835110,74.000000,1.000000
3708376.843947,-3.000000,1.000000
3708376.843957,-27.000000,1.000000
3708376.850284,-32.000000,1.000000
3708376.850288,-16.000000,1.000000
3708376.859107,60.000000,1.000000
3708376.859119,88.000000,1.000000
3708376.867946,90.000000,1.000000
3708376.867949,72.000000,1.000000
3708376.880588,-6.000000,1.000000
3708376.880672,-32.000000,1.000000
3708376.881954,-33.000000,1.000000
3708376.881957,-14.000000,1.000000
3708376.894565,62.000000,1.000000
3708376.894569,89.000000,1.000000
3708376.897203,90.000000,1.000000
3708376.897205,72.000000,1.000000
3708376.907290,-7.000000,1.000000
3708376.907297,-32.000000,1.000000
3708376.935034,-33.000000,1.000000
3708376.935040,-16.000000,1.000000
3708376.936321,64.000000,1.000000
3708376.936327,90.000000,1.000000
3708376.937610,90.000000,1.000000
3708376.937614,72.000000,1.000000
3708376.938880,-5.000000,1.000000
3708376.938883,-32.000000,1.000000
3708376.946444,-35.000000,1.000000
3708376.946449,-17.000000,1.000000
3708376.955294,63.000000,1.000000
3708376.955298,88.000000,1.000000
3708376.964113,89.000000,1.000000
3708376.964118,73.000000,1.000000
3708376.969166,-6.000000,1.000000
3708376.969172,-33.000000,1.000000
3708376.978016,-32.000000,1.000000
3708376.978027,-15.000000,1.000000
3708376.986877,63.000000,1.000000
3708376.986882,87.000000,1.000000
3708376.993173,88.000000,1.000000
3708376.993179,73.000000,1.000000
3708377.017011,-6.000000,1.000000
3708377.017017,-31.000000,1.000000
3708377.030878,-32.000000,1.000000
3708377.030883,-15.000000,1.000000
3708377.032154,65.000000,1.000000
3708377.032159,88.000000,1.000000
3708377.033436,88.000000,1.000000
3708377.033440,72.000000,1.000000
3708377.035989,-4.000000,1.000000
3708377.035992,-30.000000,1.000000
3708377.042281,-33.000000,1.000000
3708377.042284,-14.000000,1.000000
3708377.051096,63.000000,1.000000
3708377.051103,88.000000,1.000000
3708377.069997,91.000000,1.000000
3708377.070002,75.000000,1.000000
3708377.070009,-6.000000,1.000000
3708377.070010,-31.000000,1.000000
3708377.072535,-32.000000,1.000000
3708377.072539,-15.000000,1.000000
3708377.082505,64.000000,1.000000
3708377.082511,89.000000,1.000000
3708377.091331,91.000000,1.000000
3708377.091334,73.000000,1.000000
3708377.097744,-6.000000,1.000000
3708377.097749,-29.000000,1.000000
3708377.106635,-31.000000,1.000000
3708377.106639,-14.000000,1.000000
3708377.115472,66.000000,1.000000
3708377.115476,88.000000,1.000000
3708377.126804,90.000000,1.000000
3708377.126808,73.000000,1.000000
3708377.130598,-7.000000,1.000000
3708377.130606,-31.000000,1.000000
3708377.139417,-32.000000,1.000000
3708377.139421,-14.000000,1.000000
3708377.148260,66.000000,1.000000
3708377.148265,89.000000,1.000000
3708377.154558,91.000000,1.000000
3708377.154561,73.000000,1.000000
3708377.163369,-6.000000,1.000000
3708377.163376,-31.000000,1.000000
3708377.181015,-32.000000,1.000000
3708377.181020,-15.000000,1.000000
3708377.181026,64.000000,1.000000
3708377.181027,89.000000,1.000000
3708377.187309,91.000000,1.000000
3708377.187311,74.000000,1.000000
3708377.196182,-4.000000,1.000000
3708377.196199,-32.000000,1.000000
3708377.203533,-35.000000,1.000000
3708377.203537,-17.000000,1.000000
3708377.211091,62.000000,1.000000
3708377.211096,87.000000,1.000000
3708377.217395,88.000000,1.000000
3708377.217398,72.000000,1.000000
3708377.227511,-9.000000,1.000000
3708377.227534,-35.000000,1.000000
3708377.236277,-33.000000,1.000000
3708377.236281,-15.000000,1.000000
3708377.245106,62.000000,1.000000
3708377.245110,88.000000,1.000000
3708377.250152,89.000000,1.000000
3708377.250157,72.000000,1.000000
3708377.259008,-5.000000,1.000000
3708377.259076,-33.000000,1.000000
3708377.267898,-34.000000,1.000000
3708377.267906,-18.000000,1.000000
3708377.273033,61.000000,1.000000
3708377.273036,88.000000,1.000000
3708377.282985,90.000000,1.000000
3708377.282988,71.000000,1.000000
3708377.294329,-7.000000,1.000000
3708377.294334,-32.000000,1.000000
3708377.317048,-32.000000,1.000000
3708377.317052,-16.000000,1.000000
3708377.330899,62.000000,1.000000
3708377.330907,87.000000,1.000000
3708377.332170,88.000000,1.000000
3708377.332173,72.000000,1.000000
3708377.333436,-10.000000,1.000000
3708377.333439,-37.000000,1.000000
3708377.335989,-37.000000,1.000000
3708377.335993,-19.000000,1.000000
3708377.337263,60.000000,1.000000
3708377.337266,86.000000,1.000000
3708377.352380,89.000000,1.000000
3708377.352386,70.000000,1.000000
3708377.357443,-8.000000,1.000000
3708377.357449,-33.000000,1.000000
3708377.363775,-35.000000,1.000000
3708377.363783,-17.000000,1.000000
3708377.370080,63.000000,1.000000
3708377.370085,88.000000,1.000000
3708377.380004,89.000000,1.000000
3708377.380008,72.000000,1.000000
3708377.387584,-6.000000,1.000000
3708377.387590,-33.000000,1.000000
3708377.393897,-35.000000,1.000000
3708377.393900,-17.000000,1.000000
3708377.402716,62.000000,1.000000
3708377.402722,88.000000,1.000000
3708377.411319,88.000000,1.000000
3708377.411323,71.000000,1.000000
3708377.420156,-6.000000,1.000000
3708377.420162,-33.000000,1.000000
3708377.426466,-34.000000,1.000000
3708377.426482,-19.000000,1.000000
3708377.435322,60.000000,1.000000
3708377.435328,83.000000,1.000000
3708377.454023,84.000000,1.000000
3708377.454032,68.000000,1.000000
3708377.454062,-8.000000,1.000000
3708377.454064,-33.000000,1.000000
3708377.457845,-34.000000,1.000000
3708377.457848,-18.000000,1.000000
3708377.469172,60.000000,1.000000
3708377.469179,87.000000,1.000000
3708377.472953,88.000000,1.000000
3708377.472955,71.000000,1.000000
3708377.482953,-9.000000,1.000000
3708377.482958,-34.000000,1.000000
3708377.491810,-37.000000,1.000000
3708377.491814,-17.000000,1.000000
3708377.498118,61.000000,1.000000
3708377.498122,87.000000,1.000000
3708377.505739,88.000000,1.000000
3708377.505743,71.000000,1.000000
3708377.515778,-9.000000,1.000000
3708377.515783,-34.000000,1.000000
3708377.524628,-34.000000,1.000000
3708377.524633,-19.000000,1.000000
3708377.529681,59.000000,1.000000
3708377.529687,87.000000,1.000000
3708377.541007,88.000000,1.000000
3708377.541010,69.000000,1.000000
3708377.547323,-11.000000,1.000000
3708377.547328,-35.000000,1.000000
3708377.553621,-33.000000,1.000000
3708377.553624,-17.000000,1.000000
3708377.562350,62.000000,1.000000
3708377.562354,88.000000,1.000000
3708377.571167,85.000000,1.000000
3708377.571170,70.000000,1.000000
3708377.580012,-7.000000,1.000000
3708377.580018,-33.000000,1.000000
3708377.586318,-36.000000,1.000000
3708377.586321,-17.000000,1.000000
3708377.616339,61.000000,1.000000
3708377.616346,85.000000,1.000000
3708377.616353,88.000000,1.000000
3708377.616354,69.000000,1.000000
3708377.630019,-10.000000,1.000000
3708377.630028,-37.000000,1.000000
3708377.631295,-35.000000,1.000000
3708377.631298,-16.000000,1.000000
3708377.632567,60.000000,1.000000
3708377.632570,84.000000,1.000000
3708377.635157,88.000000,1.000000
3708377.635160,71.000000,1.000000
3708377.642743,-8.000000,1.000000
3708377.642748,-34.000000,1.000000
3708377.651579,-36.000000,1.000000
3708377.651584,-18.000000,1.000000
3708377.657831,62.000000,1.000000
3708377.657837,86.000000,1.000000
3708377.666650,87.000000,1.000000
3708377.666656,71.000000,1.000000
3708377.675479,-9.000000,1.000000
3708377.675483,-34.000000,1.000000
3708377.683043,-34.000000,1.000000
3708377.683047,-18.000000,1.000000
3708377.690598,62.000000,1.000000
3708377.690602,85.000000,1.000000
3708377.699114,85.000000,1.000000
3708377.699116,70.000000,1.000000
3708377.711723,-9.000000,1.000000
3708377.711732,-34.000000,1.000000
3708377.714257,-36.000000,1.000000
3708377.714260,-18.000000,1.000000
3708377.723082,61.000000,1.000000
3708377.723086,85.000000,1.000000
3708377.740706,86.000000,1.000000
3708377.740713,71.000000,1.000000
3708377.740719,-9.000000,1.000000
3708377.740721,-35.000000,1.000000
3708377.747060,-35.000000,1.000000
3708377.747064,-18.000000,1.000000
3708377.755905,58.000000,1.000000
3708377.755908,85.000000,1.000000
3708377.763355,90.000000,1.000000
3708377.763359,71.000000,1.000000
3708377.772199,-7.000000,1.000000
3708377.772207,-33.000000,1.000000
3708377.778519,-34.000000,1.000000
3708377.778525,-17.000000,1.000000
3708377.786079,62.000000,1.000000
3708377.786086,87.000000,1.000000
3708377.797407,88.000000,1.000000
3708377.797411,72.000000,1.000000
3708377.803747,-6.000000,1.000000
3708377.803752,-33.000000,1.000000
3708377.810070,-36.000000,1.000000
3708377.810074,-17.000000,1.000000
3708377.818881,62.000000,1.000000
3708377.818885,87.000000,1.000000
3708377.827693,87.000000,1.000000
3708377.827698,70.000000,1.000000
3708377.832740,-5.000000,1.000000
3708377.832747,-33.000000,1.000000
3708377.841619,-32.000000,1.000000
3708377.841623,-16.000000,1.000000
3708377.851727,62.000000,1.000000
3708377.851731,86.000000,1.000000
3708377.860547,88.000000,1.000000
3708377.860550,71.000000,1.000000
3708377.869391,-6.000000,1.000000
3708377.869396,-33.000000,1.000000
3708377.874432,-35.000000,1.000000
3708377.874436,-15.000000,1.000000
3708377.885779,62.000000,1.000000
3708377.885784,85.000000,1.000000
3708377.889563,90.000000,1.000000
3708377.889566,72.000000,1.000000
3708377.915998,-8.000000,1.000000
3708377.916005,-33.000000,1.000000
3708377.931040,-34.000000,1.000000
3708377.931061,-19.000000,1.000000
3708377.932330,59.000000,1.000000
3708377.932334,85.000000,1.000000
3708377.933609,88.000000,1.000000
3708377.933627,72.000000,1.000000
3708377.934900,-9.000000,1.000000
3708377.934907,-34.000000,1.000000
3708377.938765,-37.000000,1.000000
3708377.938773,-19.000000,1.000000
3708377.949007,63.000000,1.000000
3708377.949011,87.000000,1.000000
3708377.954044,86.000000,1.000000
3708377.954049,70.000000,1.000000
3708377.961636,-8.000000,1.000000
3708377.961642,-33.000000,1.000000
3708377.970462,-36.000000,1.000000
3708377.970466,-15.000000,1.000000
3708377.979280,62.000000,1.000000
3708377.979286,85.000000,1.000000
3708377.988105,88.000000,1.000000
3708377.988109,70.000000,1.000000
3708377.993171,-8.000000,1.000000
3708377.993177,-36.000000,1.000000
3708378.001988,-35.000000,1.000000
3708378.001995,-15.000000,1.000000
3708378.020710,60.000000,1.000000
3708378.020714,83.000000,1.000000
3708378.020723,84.000000,1.000000
3708378.020724,67.000000,1.000000
3708378.028402,-12.000000,1.000000
3708378.028415,-37.000000,1.000000
3708378.037104,-39.000000,1.000000
3708378.037109,-23.000000,1.000000
3708378.043432,56.000000,1.000000
3708378.043439,84.000000,1.000000
3708378.052263,84.000000,1.000000
3708378.052266,66.000000,1.000000
3708378.059838,-10.000000,1.000000
3708378.059844,-35.000000,1.000000
3708378.066176,-38.000000,1.000000
3708378.066180,-21.000000,1.000000
3708378.075005,61.000000,1.000000
3708378.075011,89.000000,1.000000
3708378.083816,87.000000,1.000000
3708378.083822,69.000000,1.000000
3708378.091400,-9.000000,1.000000
3708378.091406,-35.000000,1.000000
3708378.098998,-37.000000,1.000000
3708378.099005,-20.000000,1.000000
3708378.107846,60.000000,1.000000
3708378.107850,85.000000,1.000000
3708378.114141,84.000000,1.000000
3708378.114148,70.000000,1.000000
3708378.125530,-9.000000,1.000000
3708378.125564,-34.000000,1.000000
3708378.131899,-36.000000,1.000000
3708378.131903,-20.000000,1.000000
3708378.140729,60.000000,1.000000
3708378.140732,84.000000,1.000000
3708378.147025,87.000000,1.000000
3708378.147028,68.000000,1.000000
3708378.159638,-10.000000,1.000000
3708378.159643,-34.000000,1.000000
3708378.162169,-35.000000,1.000000
3708378.162172,-18.000000,1.000000
3708378.169509,60.000000,1.000000
3708378.169515,84.000000,1.000000
3708378.178313,85.000000,1.000000
3708378.178319,67.000000,1.000000
3708378.213519,-9.000000,1.000000
3708378.213524,-35.000000,1.000000
3708378.213530,-36.000000,1.000000
3708378.213532,-20.000000,1.000000
3708378.237497,58.000000,1.000000
3708378.237504,84.000000,1.000000
3708378.246319,87.000000,1.000000
3708378.246323,69.000000,1.000000
3708378.246330,-11.000000,1.000000
3708378.246336,-36.000000,1.000000
3708378.247609,-37.000000,1.000000
3708378.247613,-18.000000,1.000000
3708378.252662,61.000000,1.000000
3708378.252668,84.000000,1.000000
3708378.255060,84.000000,1.000000
3708378.255064,68.000000,1.000000
3708378.256333,-9.000000,1.000000
3708378.256336,-35.000000,1.000000
3708378.257605,-38.000000,1.000000
3708378.257608,-20.000000,1.000000
3708378.273989,59.000000,1.000000
3708378.273994,84.000000,1.000000
3708378.274000,85.000000,1.000000
3708378.274006,68.000000,1.000000
3708378.284080,-11.000000,1.000000
3708378.284086,-35.000000,1.000000
3708378.301733,-36.000000,1.000000
3708378.301740,-17.000000,1.000000
3708378.301746,60.000000,1.000000
3708378.301748,84.000000,1.000000
3708378.306784,85.000000,1.000000
3708378.306787,68.000000,1.000000
3708378.313098,-10.000000,1.000000
3708378.313105,-36.000000,1.000000
3708378.321944,-38.000000,1.000000
3708378.321948,-19.000000,1.000000
3708378.341020,59.000000,1.000000
3708378.341024,85.000000,1.000000
3708378.342301,86.000000,1.000000
3708378.342304,69.000000,1.000000
3708378.348613,-10.000000,1.000000
3708378.348631,-35.000000,1.000000
3708378.353711,-35.000000,1.000000
3708378.353714,-22.000000,1.000000
3708378.362547,58.000000,1.000000
3708378.362551,86.000000,1.000000
3708378.371365,85.000000,1.000000
3708378.371368,68.000000,1.000000
3708378.377695,-12.000000,1.000000
3708378.377702,-37.000000,1.000000
3708378.386526,-36.000000,1.000000
3708378.386530,-18.000000,1.000000
3708378.397884,60.000000,1.000000
3708378.397890,83.000000,1.000000
3708378.404198,84.000000,1.000000
3708378.404201,67.000000,1.000000
3708378.410523,-9.000000,1.000000
3708378.410529,-34.000000,1.000000
3708378.419362,-38.000000,1.000000
3708378.419366,-21.000000,1.000000
3708378.428177,59.000000,1.000000
3708378.428181,86.000000,1.000000
3708378.433217,87.000000,1.000000
3708378.433222,67.000000,1.000000
3708378.442057,-10.000000,1.000000
3708378.442064,-36.000000,1.000000
3708378.460950,-37.000000,1.000000
3708378.460957,-22.000000,1.000000
3708378.460964,56.000000,1.000000
3708378.460965,85.000000,1.000000
3708378.468419,85.000000,1.000000
3708378.468422,68.000000,1.000000
3708378.474735,-10.000000,1.000000
3708378.474740,-36.000000,1.000000
3708378.486113,-38.000000,1.000000
3708378.486117,-21.000000,1.000000
3708378.491168,59.000000,1.000000
3708378.491171,84.000000,1.000000
3708378.516342,84.000000,1.000000
3708378.516347,67.000000,1.000000
3708378.530181,-10.000000,1.000000
3708378.530185,-35.000000,1.000000
3708378.531450,-37.000000,1.000000
3708378.531453,-20.000000,1.000000
3708378.532732,60.000000,1.000000
3708378.532736,83.000000,1.000000
3708378.535263,84.000000,1.000000
3708378.535269,68.000000,1.000000
3708378.537803,-11.000000,1.000000
3708378.537807,-37.000000,1.000000
3708378.547781,-37.000000,1.000000
3708378.547790,-20.000000,1.000000
3708378.554107,59.000000,1.000000
3708378.554113,84.000000,1.000000
3708378.565450,86.000000,1.000000
3708378.565454,67.000000,1.000000
3708378.571823,-11.000000,1.000000
3708378.571828,-38.000000,1.000000
3708378.580650,-37.000000,1.000000
3708378.580654,-20.000000,1.000000
3708378.585701,60.000000,1.000000
3708378.585707,83.000000,1.000000
3708378.594512,86.000000,1.000000
3708378.594518,67.000000,1.000000
3708378.613419,-11.000000,1.000000
3708378.613424,-37.000000,1.000000
3708378.613430,-36.000000,1.000000
3708378.613431,-18.000000,1.000000
3708378.617211,58.000000,1.000000
3708378.617216,83.000000,1.000000
3708378.626014,84.000000,1.000000
3708378.626017,66.000000,1.000000
3708378.636118,-10.000000,1.000000
3708378.636123,-35.000000,1.000000
3708378.644946,-38.000000,1.000000
3708378.644951,-23.000000,1.000000
3708378.651278,58.000000,1.000000
3708378.651284,84.000000,1.000000
3708378.660092,85.000000,1.000000
3708378.660098,69.000000,1.000000
3708378.668923,-9.000000,1.000000
3708378.668927,-35.000000,1.000000
3708378.675230,-36.000000,1.000000
3708378.675234,-19.000000,1.000000
3708378.682784,58.000000,1.000000
3708378.682791,85.000000,1.000000
3708378.691596,86.000000,1.000000
3708378.691600,69.000000,1.000000
3708378.699180,-11.000000,1.000000
3708378.699187,-34.000000,1.000000
3708378.705487,-35.000000,1.000000
3708378.705493,-20.000000,1.000000
3708378.725586,58.000000,1.000000
3708378.725591,84.000000,1.000000
3708378.725597,86.000000,1.000000
3708378.725599,71.000000,1.000000
3708378.731926,-8.000000,1.000000
3708378.731931,-35.000000,1.000000
3708378.742007,-38.000000,1.000000
3708378.742011,-20.000000,1.000000
3708378.745798,58.000000,1.000000
3708378.745804,84.000000,1.000000
3708378.754613,83.000000,1.000000
3708378.754616,67.000000,1.000000
3708378.763435,-12.000000,1.000000
3708378.763441,-37.000000,1.000000
3708378.769739,-36.000000,1.000000
3708378.769743,-19.000000,1.000000
3708378.779689,61.000000,1.000000
3708378.779697,86.000000,1.000000
3708378.788504,86.000000,1.000000
3708378.788507,69.000000,1.000000
3708378.794838,-8.000000,1.000000
3708378.794843,-34.000000,1.000000
3708378.817500,-35.000000,1.000000
3708378.817504,-19.000000,1.000000
3708378.830109,60.000000,1.000000
3708378.830113,86.000000,1.000000
3708378.831385,88.000000,1.000000
3708378.831388,69.000000,1.000000
3708378.833917,-11.000000,1.000000
3708378.833921,-37.000000,1.000000
3708378.835192,-39.000000,1.000000
3708378.835195,-23.000000,1.000000
3708378.842751,57.000000,1.000000
3708378.842758,82.000000,1.000000
3708378.851560,82.000000,1.000000
3708378.851563,66.000000,1.000000
3708378.860414,-12.000000,1.000000
3708378.860419,-37.000000,1.000000
3708378.865473,-38.000000,1.000000
3708378.865478,-22.000000,1.000000
3708378.875410,58.000000,1.000000
3708378.875415,83.000000,1.000000
3708378.894355,84.000000,1.000000
3708378.894362,68.000000,1.000000
3708378.894368,-13.000000,1.000000
3708378.894370,-38.000000,1.000000
3708378.898160,-38.000000,1.000000
3708378.898164,-20.000000,1.000000
3708378.908273,58.000000,1.000000
3708378.908278,81.000000,1.000000
3708378.914568,83.000000,1.000000
3708378.914573,68.000000,1.000000
3708378.920878,-12.000000,1.000000
3708378.920884,-38.000000,1.000000
3708378.929722,-38.000000,1.000000
3708378.929727,-22.000000,1.000000
3708378.938522,57.000000,1.000000
3708378.938525,83.000000,1.000000
3708378.947335,83.000000,1.000000
3708378.947338,65.000000,1.000000
3708378.956181,-12.000000,1.000000
3708378.956185,-36.000000,1.000000
3708378.962478,-36.000000,1.000000
3708378.962482,-21.000000,1.000000
3708378.971316,59.000000,1.000000
3708378.971319,85.000000,1.000000
3708378.981398,85.000000,1.000000
3708378.981402,68.000000,1.000000
3708378.987763,-11.000000,1.000000
3708378.987771,-36.000000,1.000000
3708379.005409,-37.000000,1.000000
3708379.005415,-19.000000,1.000000
3708379.005421,59.000000,1.000000
3708379.005423,85.000000,1.000000
3708379.011726,83.000000,1.000000
3708379.011729,67.000000,1.000000
3708379.030515,-10.000000,1.000000
3708379.030521,-34.000000,1.000000
3708379.030527,-37.000000,1.000000
3708379.030528,-21.000000,1.000000
3708379.034328,57.000000,1.000000
3708379.034334,83.000000,1.000000
3708379.043132,85.000000,1.000000
3708379.043135,68.000000,1.000000
3708379.050693,-12.000000,1.000000
3708379.050698,-37.000000,1.000000
3708379.057017,-37.000000,1.000000
3708379.057021,-21.000000,1.000000
3708379.075937,58.000000,1.000000
3708379.075943,83.000000,1.000000
3708379.075949,83.000000,1.000000
3708379.075956,66.000000,1.000000
3708379.082258,-8.000000,1.000000
3708379.082263,-36.000000,1.000000
3708379.094823,-39.000000,1.000000
3708379.094827,-23.000000,1.000000
3708379.117602,58.000000,1.000000
3708379.117607,82.000000,1.000000
3708379.130223,84.000000,1.000000
3708379.130226,68.000000,1.000000
3708379.131489,-10.000000,1.000000
3708379.131492,-37.000000,1.000000
3708379.134019,-37.000000,1.000000
3708379.134025,-21.000000,1.000000
3708379.136553,54.000000,1.000000
3708379.136560,81.000000,1.000000
3708379.137825,83.000000,1.000000
3708379.137828,67.000000,1.000000
3708379.150432,-12.000000,1.000000
3708379.150438,-40.000000,1.000000
3708379.152975,-39.000000,1.000000
3708379.152978,-20.000000,1.000000
3708379.161792,57.000000,1.000000
3708379.161797,82.000000,1.000000
3708379.173120,83.000000,1.000000
3708379.173125,67.000000,1.000000
3708379.177987,-11.000000,1.000000
3708379.178006,-37.000000,1.000000
3708379.186853,-41.000000,1.000000
3708379.186866,-23.000000,1.000000
3708379.195681,57.000000,1.000000
3708379.195684,80.000000,1.000000
3708379.201984,82.000000,1.000000
3708379.201990,65.000000,1.000000
3708379.210817,-13.000000,1.000000
3708379.210823,-36.000000,1.000000
3708379.219639,-39.000000,1.000000
3708379.219643,-23.000000,1.000000
3708379.227201,56.000000,1.000000
3708379.227206,83.000000,1.000000
3708379.233496,82.000000,1.000000
3708379.233498,66.000000,1.000000
3708379.242334,-13.000000,1.000000
3708379.242340,-40.000000,1.000000
3708379.253714,-40.000000,1.000000
3708379.253719,-22.000000,1.000000
3708379.257523,57.000000,1.000000
3708379.257526,82.000000,1.000000
3708379.266320,81.000000,1.000000
3708379.266323,65.000000,1.000000
3708379.273983,-13.000000,1.000000
3708379.273989,-39.000000,1.000000
3708379.294174,-41.000000,1.000000
3708379.294179,-22.000000,1.000000
3708379.294185,55.000000,1.000000
3708379.294186,82.000000,1.000000
3708379.297967,82.000000,1.000000
3708379.297970,64.000000,1.000000
3708379.306800,-13.000000,1.000000
3708379.306818,-39.000000,1.000000
3708379.314397,-41.000000,1.000000
3708379.314403,-23.000000,1.000000
3708379.334520,54.000000,1.000000
3708379.334528,81.000000,1.000000
3708379.334534,82.000000,1.000000
3708379.334536,65.000000,1.000000
3708379.338357,-14.000000,1.000000
3708379.338361,-39.000000,1.000000
3708379.349598,-41.000000,1.000000
3708379.349642,-24.000000,1.000000
3708379.355951,56.000000,1.000000
3708379.355953,81.000000,1.000000
3708379.364780,82.000000,1.000000
3708379.364783,65.000000,1.000000
3708379.371139,-14.000000,1.000000
3708379.371144,-40.000000,1.000000
3708379.378718,-41.000000,1.000000
3708379.378721,-22.000000,1.000000
3708379.387543,56.000000,1.000000
3708379.387548,81.000000,1.000000
3708379.393849,82.000000,1.000000
3708379.393855,64.000000,1.000000
3708379.416535,-12.000000,1.000000
3708379.416540,-39.000000,1.000000
3708379.430363,-42.000000,1.000000
3708379.430368,-22.000000,1.000000
3708379.430374,57.000000,1.000000
3708379.430381,81.000000,1.000000
3708379.434324,82.000000,1.000000
3708379.434338,64.000000,1.000000
3708379.435610,-14.000000,1.000000
3708379.435632,-40.000000,1.000000
3708379.443196,-40.000000,1.000000
3708379.443200,-23.000000,1.000000
3708379.462142,55.000000,1.000000
3708379.462146,80.000000,1.000000
3708379.462153,81.000000,1.000000
3708379.462169,65.000000,1.000000
3708379.468490,-14.000000,1.000000
3708379.468495,-39.000000,1.000000
3708379.496195,-38.000000,1.000000
3708379.496199,-24.000000,1.000000
3708379.498733,55.000000,1.000000
3708379.498737,81.000000,1.000000
3708379.500023,82.000000,1.000000
3708379.500026,66.000000,1.000000
3708379.500033,-12.000000,1.000000
3708379.500034,-38.000000,1.000000
3708379.507613,-39.000000,1.000000
3708379.507619,-21.000000,1.000000
3708379.513915,56.000000,1.000000
3708379.513920,82.000000,1.000000
3708379.522724,82.000000,1.000000
3708379.522727,65.000000,1.000000
3708379.531575,-12.000000,1.000000
3708379.531581,-38.000000,1.000000
3708379.539000,-40.000000,1.000000
3708379.539003,-22.000000,1.000000
3708379.545399,57.000000,1.000000
3708379.545402,81.000000,1.000000
3708379.555562,82.000000,1.000000
3708379.555565,65.000000,1.000000
3708379.569587,-15.000000,1.000000
3708379.569591,-39.000000,1.000000
3708379.572131,-38.000000,1.000000
3708379.572148,-22.000000,1.000000
3708379.579700,56.000000,1.000000
3708379.579703,81.000000,1.000000
3708379.598630,83.000000,1.000000
3708379.598635,65.000000,1.000000
3708379.598661,-14.000000,1.000000
3708379.598663,-39.000000,1.000000
3708379.602450,-39.000000,1.000000
3708379.602453,-21.000000,1.000000
3708379.610003,58.000000,1.000000
3708379.610010,79.000000,1.000000
3708379.618823,81.000000,1.000000
3708379.618829,65.000000,1.000000
3708379.627642,-18.000000,1.000000
3708379.627646,-41.000000,1.000000
3708379.633958,-39.000000,1.000000
3708379.633964,-22.000000,1.000000
3708379.641568,56.000000,1.000000
3708379.641571,83.000000,1.000000
3708379.651470,81.000000,1.000000
3708379.651474,67.000000,1.000000
3708379.657740,-13.000000,1.000000
3708379.657745,-38.000000,1.000000
3708379.666531,-39.000000,1.000000
3708379.666535,-21.000000,1.000000
3708379.675344,56.000000,1.000000
3708379.675350,81.000000,1.000000
3708379.686684,85.000000,1.000000
3708379.686700,65.000000,1.000000
3708379.691759,-13.000000,1.000000
3708379.691764,-38.000000,1.000000
3708379.716958,-38.000000,1.000000
3708379.716963,-22.000000,1.000000
3708379.730868,58.000000,1.000000
3708379.730876,83.000000,1.000000
3708379.732193,83.000000,1.000000
3708379.732196,65.000000,1.000000
3708379.732202,-13.000000,1.000000
3708379.732203,-38.000000,1.000000
3708379.735991,-39.000000,1.000000
3708379.735996,-19.000000,1.000000
3708379.742286,57.000000,1.000000
3708379.742293,83.000000,1.000000
3708379.748592,84.000000,1.000000
3708379.748596,66.000000,1.000000
3708379.753652,-14.000000,1.000000
3708379.753659,-40.000000,1.000000
3708379.764990,-40.000000,1.000000
3708379.764996,-23.000000,1.000000
3708379.771298,56.000000,1.000000
3708379.771300,80.000000,1.000000
3708379.778634,80.000000,1.000000
3708379.778639,64.000000,1.000000
3708379.786225,-16.000000,1.000000
3708379.786230,-39.000000,1.000000
3708379.795045,-40.000000,1.000000
3708379.795051,-24.000000,1.000000
3708379.803858,55.000000,1.000000
3708379.803864,80.000000,1.000000
3708379.810154,81.000000,1.000000
3708379.810160,63.000000,1.000000
3708379.818987,-15.000000,1.000000
3708379.818992,-39.000000,1.000000
3708379.826550,-40.000000,1.000000
3708379.826556,-23.000000,1.000000
3708379.832853,55.000000,1.000000
3708379.832856,79.000000,1.000000
3708379.845251,80.000000,1.000000
3708379.845254,64.000000,1.000000
3708379.851567,-16.000000,1.000000
3708379.851572,-42.000000,1.000000
3708379.870445,-40.000000,1.000000
3708379.870453,-25.000000,1.000000
3708379.870459,52.000000,1.000000
3708379.870460,80.000000,1.000000
3708379.874238,79.000000,1.000000
3708379.874241,62.000000,1.000000
3708379.883077,-16.000000,1.000000
3708379.883083,-40.000000,1.000000
3708379.891890,-41.000000,1.000000
3708379.891894,-23.000000,1.000000
3708379.898229,53.000000,1.000000
3708379.898232,77.000000,1.000000
3708379.907035,81.000000,1.000000
3708379.907038,64.000000,1.000000
3708379.915879,-15.000000,1.000000
3708379.915884,-39.000000,1.000000
3708379.923451,-42.000000,1.000000
3708379.923454,-26.000000,1.000000
3708379.929816,54.000000,1.000000
3708379.929822,78.000000,1.000000
3708379.938631,80.000000,1.000000
3708379.938634,63.000000,1.000000
3708379.947448,-17.000000,1.000000
3708379.947455,-40.000000,1.000000
3708379.953764,-41.000000,1.000000
3708379.953770,-24.000000,1.000000
3708379.962392,54.000000,1.000000
3708379.962396,77.000000,1.000000
3708379.971210,79.000000,1.000000
3708379.971213,62.000000,1.000000
3708379.980028,-16.000000,1.000000
3708379.980033,-40.000000,1.000000
3708379.988879,-43.000000,1.000000
3708379.988883,-26.000000,1.000000
3708379.995178,54.000000,1.000000
3708379.995180,78.000000,1.000000
3708380.032908,81.000000,1.000000
3708380.032916,63.000000,1.000000
3708380.034184,-15.000000,1.000000
3708380.034190,-40.000000,1.000000
3708380.035456,-42.000000,1.000000
3708380.035459,-25.000000,1.000000
3708380.036728,54.000000,1.000000
3708380.036734,79.000000,1.000000
3708380.041835,79.000000,1.000000
3708380.041843,63.000000,1.000000
3708380.044376,-15.000000,1.000000
3708380.044392,-38.000000,1.000000
3708380.050730,-42.000000,1.000000
3708380.050737,-25.000000,1.000000
3708380.057036,55.000000,1.000000
3708380.057039,81.000000,1.000000
3708380.065839,81.000000,1.000000
3708380.065844,63.000000,1.000000
3708380.074650,-17.000000,1.000000
3708380.074656,-40.000000,1.000000
3708380.083594,-41.000000,1.000000
3708380.083598,-23.000000,1.000000
3708380.089967,55.000000,1.000000
3708380.089971,78.000000,1.000000
3708380.100096,81.000000,1.000000
3708380.100099,63.000000,1.000000
3708380.106406,-14.000000,1.000000
3708380.106411,-41.000000,1.000000
3708380.115243,-42.000000,1.000000
3708380.115246,-24.000000,1.000000
3708380.124105,54.000000,1.000000
3708380.124111,77.000000,1.000000
3708380.131673,79.000000,1.000000
3708380.131676,63.000000,1.000000
3708380.140618,-18.000000,1.000000
3708380.140625,-44.000000,1.000000
3708380.158262,-42.000000,1.000000
3708380.158266,-24.000000,1.000000
3708380.158273,53.000000,1.000000
3708380.158275,81.000000,1.000000
3708380.164578,82.000000,1.000000
3708380.164584,63.000000,1.000000
3708380.170929,-16.000000,1.000000
3708380.170934,-40.000000,1.000000
3708380.181042,-39.000000,1.000000
3708380.181046,-23.000000,1.000000
3708380.187342,53.000000,1.000000
3708380.187345,80.000000,1.000000
3708380.193634,81.000000,1.000000
3708380.193640,63.000000,1.000000
3708380.202488,-15.000000,1.000000
3708380.202497,-41.000000,1.000000
3708380.211318,-40.000000,1.000000
3708380.211323,-23.000000,1.000000
3708380.216360,55.000000,1.000000
3708380.216367,82.000000,1.000000
3708380.227509,81.000000,1.000000
3708380.227513,65.000000,1.000000
3708380.235101,-16.000000,1.000000
3708380.235114,-40.000000,1.000000
3708380.243984,-42.000000,1.000000
3708380.243988,-23.000000,1.000000
3708380.250295,54.000000,1.000000
3708380.250299,79.000000,1.000000
3708380.261629,80.000000,1.000000
3708380.261635,64.000000,1.000000
3708380.268042,-15.000000,1.000000
3708380.268048,-41.000000,1.000000
3708380.274357,-41.000000,1.000000
3708380.274360,-24.000000,1.000000
3708380.281925,52.000000,1.000000
3708380.281929,78.000000,1.000000
3708380.315873,80.000000,1.000000
3708380.315878,61.000000,1.000000
3708380.315884,-16.000000,1.000000
3708380.315887,-39.000000,1.000000
3708380.331137,-43.000000,1.000000
3708380.331142,-26.000000,1.000000
3708380.332418,53.000000,1.000000
3708380.332427,78.000000,1.000000
3708380.333694,79.000000,1.000000
3708380.333697,61.000000,1.000000
3708380.334988,-17.000000,1.000000
3708380.334991,-41.000000,1.000000
3708380.337520,-41.000000,1.000000
3708380.337523,-23.000000,1.000000
3708380.347607,55.000000,1.000000
3708380.347613,80.000000,1.000000
3708380.353920,80.000000,1.000000
3708380.353926,62.000000,1.000000
3708380.362809,-14.000000,1.000000
3708380.362813,-41.000000,1.000000
3708380.371663,-41.000000,1.000000
3708380.371667,-24.000000,1.000000
3708380.380475,53.000000,1.000000
3708380.380480,79.000000,1.000000
3708380.386776,81.000000,1.000000
3708380.386779,63.000000,1.000000
3708380.394334,-17.000000,1.000000
3708380.394339,-40.000000,1.000000
3708380.403172,-41.000000,1.000000
3708380.403175,-24.000000,1.000000
3708380.419362,53.000000,1.000000
3708380.419366,77.000000,1.000000
3708380.419373,78.000000,1.000000
