# participant_id: Vert_FL
# gesture: custom
# trial_number: 4
# stream_name: BioRadio_Configuration
# timestamp: 20260430_100259
# samples: 3218
# duration_sec: 12.861
# nominal_sample_rate: 250.0
# effective_sample_rate: 250.13
#
timestamp,EMG1,GSR2
3708686.231906,599.000000,1.000000
3708686.231911,614.000000,1.000000
3708686.236952,678.000000,1.000000
3708686.236957,693.000000,1.000000
3708686.245775,695.000000,1.000000
3708686.245781,680.000000,1.000000
3708686.254598,616.000000,1.000000
3708686.254601,599.000000,1.000000
3708686.263405,600.000000,1.000000
3708686.263412,615.000000,1.000000
3708686.269511,677.000000,1.000000
3708686.269514,694.000000,1.000000
3708686.279742,694.000000,1.000000
3708686.279747,680.000000,1.000000
3708686.289632,616.000000,1.000000
3708686.289639,599.000000,1.000000
3708686.293424,598.000000,1.000000
3708686.293427,614.000000,1.000000
3708686.322362,678.000000,1.000000
3708686.322366,695.000000,1.000000
3708686.336204,697.000000,1.000000
3708686.336208,680.000000,1.000000
3708686.337477,616.000000,1.000000
3708686.337482,599.000000,1.000000
3708686.338748,599.000000,1.000000
3708686.338753,613.000000,1.000000
3708686.341285,676.000000,1.000000
3708686.341289,695.000000,1.000000
3708686.343817,696.000000,1.000000
3708686.343821,681.000000,1.000000
3708686.350128,616.000000,1.000000
3708686.350132,599.000000,1.000000
3708686.357475,599.000000,1.000000
3708686.357481,614.000000,1.000000
3708686.368811,679.000000,1.000000
3708686.368818,696.000000,1.000000
3708686.375128,695.000000,1.000000
3708686.375135,680.000000,1.000000
3708686.383951,616.000000,1.000000
3708686.383956,599.000000,1.000000
3708686.390244,599.000000,1.000000
3708686.390251,612.000000,1.000000
3708686.399051,677.000000,1.000000
3708686.399057,695.000000,1.000000
3708686.407885,695.000000,1.000000
3708686.407889,680.000000,1.000000
3708686.412945,616.000000,1.000000
3708686.412954,599.000000,1.000000
3708686.421786,600.000000,1.000000
3708686.421792,614.000000,1.000000
3708686.430596,677.000000,1.000000
3708686.430599,694.000000,1.000000
3708686.439427,695.000000,1.000000
3708686.439433,680.000000,1.000000
3708686.445733,616.000000,1.000000
3708686.445738,599.000000,1.000000
3708686.455689,599.000000,1.000000
3708686.455693,614.000000,1.000000
3708686.474624,678.000000,1.000000
3708686.474630,695.000000,1.000000
3708686.474636,696.000000,1.000000
3708686.474638,681.000000,1.000000
3708686.480957,617.000000,1.000000
3708686.480961,599.000000,1.000000
3708686.487252,599.000000,1.000000
3708686.487256,615.000000,1.000000
3708686.496062,678.000000,1.000000
3708686.496064,696.000000,1.000000
3708686.504892,695.000000,1.000000
3708686.504898,680.000000,1.000000
3708686.508712,617.000000,1.000000
3708686.508721,600.000000,1.000000
3708686.517535,600.000000,1.000000
3708686.517541,614.000000,1.000000
3708686.526339,679.000000,1.000000
3708686.526342,696.000000,1.000000
3708686.533878,696.000000,1.000000
3708686.533884,681.000000,1.000000
3708686.542742,617.000000,1.000000
3708686.542749,599.000000,1.000000
3708686.551594,600.000000,1.000000
3708686.551598,614.000000,1.000000
3708686.560406,677.000000,1.000000
3708686.560409,695.000000,1.000000
3708686.566713,696.000000,1.000000
3708686.566717,681.000000,1.000000
3708686.574303,617.000000,1.000000
3708686.574307,599.000000,1.000000
3708686.593172,600.000000,1.000000
3708686.593175,615.000000,1.000000
3708686.593182,679.000000,1.000000
3708686.593183,696.000000,1.000000
3708686.599483,696.000000,1.000000
3708686.599489,680.000000,1.000000
3708686.622154,616.000000,1.000000
3708686.622159,599.000000,1.000000
3708686.637185,600.000000,1.000000
3708686.637191,615.000000,1.000000
3708686.638461,678.000000,1.000000
3708686.638467,695.000000,1.000000
3708686.639734,696.000000,1.000000
3708686.639737,681.000000,1.000000
3708686.641005,616.000000,1.000000
3708686.641009,600.000000,1.000000
3708686.646049,600.000000,1.000000
3708686.646055,615.000000,1.000000
3708686.654860,678.000000,1.000000
3708686.654865,695.000000,1.000000
3708686.663692,696.000000,1.000000
3708686.663697,682.000000,1.000000
3708686.670009,618.000000,1.000000
3708686.670013,600.000000,1.000000
3708686.699006,600.000000,1.000000
3708686.699014,615.000000,1.000000
3708686.702754,679.000000,1.000000
3708686.702758,696.000000,1.000000
3708686.704025,695.000000,1.000000
3708686.704028,680.000000,1.000000
3708686.705317,617.000000,1.000000
3708686.705321,599.000000,1.000000
3708686.711619,600.000000,1.000000
3708686.711622,615.000000,1.000000
3708686.720447,678.000000,1.000000
3708686.720453,696.000000,1.000000
3708686.725506,697.000000,1.000000
3708686.725512,681.000000,1.000000
3708686.734329,618.000000,1.000000
3708686.734333,600.000000,1.000000
3708686.748170,598.000000,1.000000
3708686.748176,614.000000,1.000000
3708686.754403,678.000000,1.000000
3708686.754409,696.000000,1.000000
3708686.756977,697.000000,1.000000
3708686.756982,681.000000,1.000000
3708686.770662,617.000000,1.000000
3708686.770666,600.000000,1.000000
3708686.773192,599.000000,1.000000
3708686.773199,614.000000,1.000000
3708686.782004,677.000000,1.000000
3708686.782010,695.000000,1.000000
3708686.790853,696.000000,1.000000
3708686.790858,681.000000,1.000000
3708686.797183,616.000000,1.000000
3708686.797189,600.000000,1.000000
3708686.806000,600.000000,1.000000
3708686.806006,616.000000,1.000000
3708686.814805,679.000000,1.000000
3708686.814809,696.000000,1.000000
3708686.822441,696.000000,1.000000
3708686.822446,681.000000,1.000000
3708686.828747,617.000000,1.000000
3708686.828751,599.000000,1.000000
3708686.837565,598.000000,1.000000
3708686.837568,613.000000,1.000000
3708686.847494,677.000000,1.000000
3708686.847500,695.000000,1.000000
3708686.853857,695.000000,1.000000
3708686.853862,679.000000,1.000000
3708686.865200,616.000000,1.000000
3708686.865205,600.000000,1.000000
3708686.871510,599.000000,1.000000
3708686.871515,613.000000,1.000000
3708686.891681,678.000000,1.000000
3708686.891686,696.000000,1.000000
3708686.891702,696.000000,1.000000
3708686.891703,680.000000,1.000000
3708686.895491,617.000000,1.000000
3708686.895513,600.000000,1.000000
3708686.923008,599.000000,1.000000
3708686.923015,614.000000,1.000000
3708686.935610,677.000000,1.000000
3708686.935616,695.000000,1.000000
3708686.936883,695.000000,1.000000
3708686.936889,679.000000,1.000000
3708686.938153,616.000000,1.000000
3708686.938156,598.000000,1.000000
3708686.941937,599.000000,1.000000
3708686.941944,614.000000,1.000000
3708686.943208,677.000000,1.000000
3708686.943211,694.000000,1.000000
3708686.953280,694.000000,1.000000
3708686.953285,679.000000,1.000000
3708686.957077,615.000000,1.000000
3708686.957081,598.000000,1.000000
3708686.965827,597.000000,1.000000
3708686.965833,612.000000,1.000000
3708686.974556,676.000000,1.000000
3708686.974562,693.000000,1.000000
3708686.983395,693.000000,1.000000
3708686.983400,677.000000,1.000000
3708686.989755,613.000000,1.000000
3708686.989759,597.000000,1.000000
3708686.998584,597.000000,1.000000
3708686.998589,612.000000,1.000000
3708687.017481,676.000000,1.000000
3708687.017485,693.000000,1.000000
3708687.017492,694.000000,1.000000
3708687.017493,679.000000,1.000000
3708687.022552,616.000000,1.000000
3708687.022555,598.000000,1.000000
3708687.032629,597.000000,1.000000
3708687.032634,613.000000,1.000000
3708687.037688,677.000000,1.000000
3708687.037692,695.000000,1.000000
3708687.050132,696.000000,1.000000
3708687.050137,680.000000,1.000000
3708687.053964,616.000000,1.000000
3708687.053968,598.000000,1.000000
3708687.062840,597.000000,1.000000
3708687.062845,613.000000,1.000000
3708687.070388,677.000000,1.000000
3708687.070393,695.000000,1.000000
3708687.076689,695.000000,1.000000
3708687.076693,679.000000,1.000000
3708687.085530,616.000000,1.000000
3708687.085535,599.000000,1.000000
3708687.094397,599.000000,1.000000
3708687.094400,614.000000,1.000000
3708687.104470,678.000000,1.000000
3708687.104475,694.000000,1.000000
3708687.110801,694.000000,1.000000
3708687.110835,679.000000,1.000000
3708687.120899,616.000000,1.000000
3708687.120904,598.000000,1.000000
3708687.127220,598.000000,1.000000
3708687.127223,613.000000,1.000000
3708687.133517,677.000000,1.000000
3708687.133523,694.000000,1.000000
3708687.142347,695.000000,1.000000
3708687.142356,679.000000,1.000000
3708687.151186,616.000000,1.000000
3708687.151190,599.000000,1.000000
3708687.170055,598.000000,1.000000
3708687.170063,613.000000,1.000000
3708687.170069,676.000000,1.000000
3708687.170076,694.000000,1.000000
3708687.172602,695.000000,1.000000
3708687.172608,680.000000,1.000000
3708687.182498,615.000000,1.000000
3708687.182511,597.000000,1.000000
3708687.191332,598.000000,1.000000
3708687.191336,613.000000,1.000000
3708687.197629,677.000000,1.000000
3708687.197632,694.000000,1.000000
3708687.222830,694.000000,1.000000
3708687.222836,679.000000,1.000000
3708687.236734,616.000000,1.000000
3708687.236739,599.000000,1.000000
3708687.238009,599.000000,1.000000
3708687.238012,615.000000,1.000000
3708687.238018,678.000000,1.000000
3708687.238020,695.000000,1.000000
3708687.240315,694.000000,1.000000
3708687.240319,680.000000,1.000000
3708687.247932,617.000000,1.000000
3708687.247936,600.000000,1.000000
3708687.254241,601.000000,1.000000
3708687.254246,617.000000,1.000000
3708687.263060,680.000000,1.000000
3708687.263064,696.000000,1.000000
3708687.270622,699.000000,1.000000
3708687.270628,684.000000,1.000000
3708687.279455,620.000000,1.000000
3708687.279459,603.000000,1.000000
3708687.284499,603.000000,1.000000
3708687.284505,618.000000,1.000000
3708687.297056,683.000000,1.000000
3708687.297060,699.000000,1.000000
3708687.303402,699.000000,1.000000
3708687.303407,684.000000,1.000000
3708687.309747,619.000000,1.000000
3708687.309763,602.000000,1.000000
3708687.318566,602.000000,1.000000
3708687.318569,617.000000,1.000000
3708687.337270,680.000000,1.000000
3708687.337276,698.000000,1.000000
3708687.337282,698.000000,1.000000
3708687.337283,683.000000,1.000000
3708687.343611,619.000000,1.000000
3708687.343615,602.000000,1.000000
3708687.352422,601.000000,1.000000
3708687.352428,616.000000,1.000000
3708687.358725,680.000000,1.000000
3708687.358728,698.000000,1.000000
3708687.367599,697.000000,1.000000
3708687.367606,682.000000,1.000000
3708687.372673,619.000000,1.000000
3708687.372677,602.000000,1.000000
3708687.382755,601.000000,1.000000
3708687.382761,615.000000,1.000000
3708687.391565,680.000000,1.000000
3708687.391571,697.000000,1.000000
3708687.400418,697.000000,1.000000
3708687.400424,682.000000,1.000000
3708687.406730,619.000000,1.000000
3708687.406733,601.000000,1.000000
3708687.415558,601.000000,1.000000
3708687.415562,616.000000,1.000000
3708687.424382,679.000000,1.000000
3708687.424388,696.000000,1.000000
3708687.430742,696.000000,1.000000
3708687.430747,682.000000,1.000000
3708687.439552,618.000000,1.000000
3708687.439557,600.000000,1.000000
3708687.457175,600.000000,1.000000
3708687.457181,615.000000,1.000000
3708687.459750,678.000000,1.000000
3708687.459755,697.000000,1.000000
3708687.461023,697.000000,1.000000
3708687.461028,682.000000,1.000000
3708687.473647,619.000000,1.000000
3708687.473651,601.000000,1.000000
3708687.477437,601.000000,1.000000
3708687.477440,616.000000,1.000000
3708687.486248,680.000000,1.000000
3708687.486253,698.000000,1.000000
3708687.493820,698.000000,1.000000
3708687.493826,683.000000,1.000000
3708687.536422,620.000000,1.000000
3708687.536427,603.000000,1.000000
3708687.538951,603.000000,1.000000
3708687.538953,617.000000,1.000000
3708687.540217,680.000000,1.000000
3708687.540220,697.000000,1.000000
3708687.541489,697.000000,1.000000
3708687.541493,682.000000,1.000000
3708687.545269,618.000000,1.000000
3708687.545272,599.000000,1.000000
3708687.546536,598.000000,1.000000
3708687.546539,613.000000,1.000000
3708687.551588,677.000000,1.000000
3708687.551593,694.000000,1.000000
3708687.560406,696.000000,1.000000
3708687.560411,680.000000,1.000000
3708687.565474,617.000000,1.000000
3708687.565478,600.000000,1.000000
3708687.574313,600.000000,1.000000
3708687.574319,615.000000,1.000000
3708687.593225,679.000000,1.000000
3708687.593230,696.000000,1.000000
3708687.593253,696.000000,1.000000
3708687.593255,681.000000,1.000000
3708687.597035,617.000000,1.000000
3708687.597039,600.000000,1.000000
3708687.605663,600.000000,1.000000
3708687.605671,615.000000,1.000000
3708687.615744,678.000000,1.000000
3708687.615759,694.000000,1.000000
3708687.625893,695.000000,1.000000
3708687.625898,680.000000,1.000000
3708687.629690,616.000000,1.000000
3708687.629694,599.000000,1.000000
3708687.639765,600.000000,1.000000
3708687.639771,615.000000,1.000000
3708687.648581,677.000000,1.000000
3708687.648587,695.000000,1.000000
3708687.654905,695.000000,1.000000
3708687.654910,681.000000,1.000000
3708687.663729,617.000000,1.000000
3708687.663733,599.000000,1.000000
3708687.671286,599.000000,1.000000
3708687.671292,614.000000,1.000000
3708687.680110,677.000000,1.000000
3708687.680114,695.000000,1.000000
3708687.686435,695.000000,1.000000
3708687.686440,680.000000,1.000000
3708687.693991,616.000000,1.000000
3708687.693996,599.000000,1.000000
3708687.705338,599.000000,1.000000
3708687.705341,613.000000,1.000000
3708687.709121,677.000000,1.000000
3708687.709126,695.000000,1.000000
3708687.717953,698.000000,1.000000
3708687.717958,686.000000,1.000000
3708687.738020,622.000000,1.000000
3708687.738025,605.000000,1.000000
3708687.738031,610.000000,1.000000
3708687.738033,631.000000,1.000000
3708687.744331,699.000000,1.000000
3708687.744333,721.000000,1.000000
3708687.750689,728.000000,1.000000
3708687.750693,718.000000,1.000000
3708687.758276,660.000000,1.000000
3708687.758279,647.000000,1.000000
3708687.767098,649.000000,1.000000
3708687.767102,667.000000,1.000000
3708687.773400,734.000000,1.000000
3708687.773405,754.000000,1.000000
3708687.782231,758.000000,1.000000
3708687.782236,745.000000,1.000000
3708687.793593,683.000000,1.000000
3708687.793598,666.000000,1.000000
3708687.797384,667.000000,1.000000
3708687.797390,683.000000,1.000000
3708687.826362,747.000000,1.000000
3708687.826367,764.000000,1.000000
3708687.835173,765.000000,1.000000
3708687.835179,749.000000,1.000000
3708687.837473,684.000000,0.000000
3708687.837477,665.000000,0.000000
3708687.838746,664.000000,0.000000
3708687.838751,679.000000,0.000000
3708687.841286,743.000000,0.000000
3708687.841289,759.000000,0.000000
3708687.847592,759.000000,0.000000
3708687.847597,744.000000,0.000000
3708687.853894,681.000000,1.000000
3708687.853898,663.000000,1.000000
3708687.862709,663.000000,1.000000
3708687.862713,678.000000,1.000000
3708687.872775,741.000000,1.000000
3708687.872780,758.000000,1.000000
3708687.876568,759.000000,1.000000
3708687.876574,744.000000,1.000000
3708687.885437,680.000000,1.000000
3708687.885443,662.000000,1.000000
3708687.895391,662.000000,1.000000
3708687.895394,678.000000,1.000000
3708687.901687,740.000000,1.000000
3708687.901690,758.000000,1.000000
3708687.910632,758.000000,1.000000
3708687.910638,743.000000,1.000000
3708687.919451,680.000000,1.000000
3708687.919457,662.000000,1.000000
3708687.927016,662.000000,1.000000
3708687.927019,678.000000,1.000000
3708687.933310,741.000000,1.000000
3708687.933316,758.000000,1.000000
3708687.942162,757.000000,1.000000
3708687.942167,742.000000,1.000000
3708687.950998,679.000000,1.000000
3708687.951001,661.000000,1.000000
3708687.979957,661.000000,1.000000
3708687.979963,676.000000,1.000000
3708687.982492,739.000000,1.000000
3708687.982495,757.000000,1.000000
3708687.983762,757.000000,1.000000
3708687.983771,741.000000,1.000000
3708687.983781,678.000000,1.000000
3708687.983782,661.000000,1.000000
3708687.988893,661.000000,1.000000
3708687.988896,676.000000,1.000000
3708687.999028,739.000000,1.000000
3708687.999031,757.000000,1.000000
3708688.007880,757.000000,1.000000
3708688.007885,742.000000,1.000000
3708688.016816,677.000000,1.000000
3708688.016820,660.000000,1.000000
3708688.023118,660.000000,1.000000
3708688.023122,675.000000,1.000000
3708688.033184,739.000000,1.000000
3708688.033188,757.000000,1.000000
3708688.036991,757.000000,1.000000
3708688.036996,741.000000,1.000000
3708688.045881,676.000000,1.000000
3708688.045888,659.000000,1.000000
3708688.055953,660.000000,1.000000
3708688.055959,675.000000,1.000000
3708688.064758,738.000000,1.000000
3708688.064761,756.000000,1.000000
3708688.071078,756.000000,1.000000
3708688.071084,741.000000,1.000000
3708688.077382,677.000000,1.000000
3708688.077386,659.000000,1.000000
3708688.087273,659.000000,1.000000
3708688.087279,675.000000,1.000000
3708688.093576,738.000000,1.000000
3708688.093579,755.000000,1.000000
3708688.122590,755.000000,1.000000
3708688.122598,740.000000,1.000000
3708688.136472,677.000000,1.000000
3708688.136477,659.000000,1.000000
3708688.137744,659.000000,1.000000
3708688.137748,673.000000,1.000000
3708688.139013,736.000000,1.000000
3708688.139018,754.000000,1.000000
3708688.141542,754.000000,1.000000
3708688.141546,739.000000,1.000000
3708688.144074,676.000000,1.000000
3708688.144077,658.000000,1.000000
3708688.160424,658.000000,1.000000
3708688.160428,673.000000,1.000000
3708688.160434,737.000000,1.000000
3708688.160435,754.000000,1.000000
3708688.166729,754.000000,1.000000
3708688.166735,740.000000,1.000000
3708688.174196,676.000000,1.000000
3708688.174200,659.000000,1.000000
3708688.183019,659.000000,1.000000
3708688.183025,673.000000,1.000000
3708688.191839,738.000000,1.000000
3708688.191844,754.000000,1.000000
3708688.198148,755.000000,1.000000
3708688.198152,740.000000,1.000000
3708688.205732,675.000000,1.000000
3708688.205736,659.000000,1.000000
3708688.214572,658.000000,1.000000
3708688.214575,674.000000,1.000000
3708688.223392,738.000000,1.000000
3708688.223395,756.000000,1.000000
3708688.229742,755.000000,1.000000
3708688.229749,741.000000,1.000000
3708688.238590,677.000000,1.000000
3708688.238598,659.000000,1.000000
3708688.247397,658.000000,1.000000
3708688.247403,674.000000,1.000000
3708688.252431,738.000000,1.000000
3708688.252434,755.000000,1.000000
3708688.261346,755.000000,1.000000
3708688.261359,743.000000,1.000000
3708688.281600,680.000000,1.000000
3708688.281605,662.000000,1.000000
3708688.281613,661.000000,1.000000
3708688.281614,679.000000,1.000000
3708688.286659,743.000000,1.000000
3708688.286664,763.000000,1.000000
3708688.294257,764.000000,1.000000
3708688.294263,749.000000,1.000000
3708688.303104,687.000000,0.000000
3708688.303107,670.000000,0.000000
3708688.321994,672.000000,0.000000
3708688.322001,687.000000,0.000000
3708688.322007,751.000000,0.000000
3708688.322008,769.000000,0.000000
3708688.327054,768.000000,0.000000
3708688.327059,754.000000,0.000000
3708688.333404,690.000000,0.000000
3708688.333409,672.000000,0.000000
3708688.342240,671.000000,0.000000
3708688.342246,687.000000,0.000000
3708688.351048,750.000000,0.000000
3708688.351053,766.000000,0.000000
3708688.357359,765.000000,0.000000
3708688.357365,749.000000,0.000000
3708688.364934,685.000000,0.000000
3708688.364937,666.000000,0.000000
3708688.374939,666.000000,0.000000
3708688.374942,680.000000,0.000000
3708688.383746,743.000000,0.000000
3708688.383749,760.000000,0.000000
3708688.390055,759.000000,0.000000
3708688.390061,745.000000,0.000000
3708688.398917,681.000000,1.000000
3708688.398921,663.000000,1.000000
3708688.426598,664.000000,1.000000
3708688.426604,680.000000,1.000000
3708688.435417,742.000000,1.000000
3708688.435422,760.000000,1.000000
3708688.436687,760.000000,1.000000
3708688.436689,746.000000,1.000000
3708688.437956,682.000000,1.000000
3708688.437962,664.000000,1.000000
3708688.441779,663.000000,1.000000
3708688.441783,679.000000,1.000000
3708688.449360,743.000000,1.000000
3708688.449363,759.000000,1.000000
3708688.454414,759.000000,1.000000
3708688.454418,744.000000,1.000000
3708688.463379,680.000000,1.000000
3708688.463386,662.000000,1.000000
3708688.472205,662.000000,1.000000
3708688.472212,678.000000,1.000000
3708688.477246,742.000000,1.000000
3708688.477249,760.000000,1.000000
3708688.486081,760.000000,1.000000
3708688.486086,744.000000,1.000000
3708688.493815,681.000000,1.000000
3708688.493865,665.000000,1.000000
3708688.503920,666.000000,1.000000
3708688.503927,683.000000,1.000000
3708688.510224,745.000000,1.000000
3708688.510227,763.000000,1.000000
3708688.519085,765.000000,1.000000
3708688.519090,749.000000,1.000000
3708688.528021,685.000000,0.000000
3708688.528030,667.000000,0.000000
3708688.534332,666.000000,0.000000
3708688.534338,681.000000,0.000000
3708688.543158,746.000000,0.000000
3708688.543160,762.000000,0.000000
3708688.550713,762.000000,0.000000
3708688.550718,747.000000,0.000000
3708688.559566,683.000000,1.000000
3708688.559569,665.000000,1.000000
3708688.565869,665.000000,1.000000
3708688.565875,680.000000,1.000000
3708688.574677,742.000000,1.000000
3708688.574680,761.000000,1.000000
3708688.593545,762.000000,1.000000
3708688.593550,746.000000,1.000000
3708688.593557,681.000000,1.000000
3708688.593558,664.000000,1.000000
3708688.596108,665.000000,1.000000
3708688.596113,680.000000,1.000000
3708688.604979,743.000000,1.000000
3708688.604982,761.000000,1.000000
3708688.615082,761.000000,1.000000
3708688.615087,747.000000,1.000000
3708688.626443,682.000000,1.000000
3708688.626455,665.000000,1.000000
3708688.630271,665.000000,1.000000
3708688.630277,679.000000,1.000000
3708688.639086,744.000000,1.000000
3708688.639091,760.000000,1.000000
3708688.647918,761.000000,1.000000
3708688.647923,747.000000,1.000000
3708688.652969,684.000000,1.000000
3708688.652974,665.000000,1.000000
3708688.661820,665.000000,1.000000
3708688.661826,681.000000,1.000000
3708688.670631,745.000000,1.000000
3708688.670637,763.000000,1.000000
3708688.679470,762.000000,1.000000
3708688.679477,746.000000,1.000000
3708688.685776,681.000000,0.000000
3708688.685781,664.000000,0.000000
3708688.723642,661.000000,0.000000
3708688.723650,677.000000,0.000000
3708688.723655,739.000000,0.000000
3708688.723660,754.000000,0.000000
3708688.737505,753.000000,0.000000
3708688.737510,738.000000,0.000000
3708688.737518,674.000000,0.000000
3708688.737519,656.000000,0.000000
3708688.738787,655.000000,0.000000
3708688.738793,671.000000,0.000000
3708688.741333,733.000000,0.000000
3708688.741337,748.000000,0.000000
3708688.743881,750.000000,0.000000
3708688.743884,734.000000,0.000000
3708688.751438,671.000000,0.000000
3708688.751442,653.000000,0.000000
3708688.757736,652.000000,0.000000
3708688.757739,666.000000,0.000000
3708688.766553,730.000000,0.000000
3708688.766556,747.000000,0.000000
3708688.774121,747.000000,0.000000
3708688.774126,731.000000,0.000000
3708688.782956,668.000000,1.000000
3708688.782961,651.000000,1.000000
3708688.789258,651.000000,1.000000
3708688.789260,666.000000,1.000000
3708688.799324,729.000000,1.000000
3708688.799329,747.000000,1.000000
3708688.808147,747.000000,1.000000
3708688.808161,732.000000,1.000000
3708688.813207,667.000000,1.000000
3708688.813210,651.000000,1.000000
3708688.822015,651.000000,1.000000
3708688.822018,666.000000,1.000000
3708688.830822,729.000000,1.000000
3708688.830825,745.000000,1.000000
3708688.839723,745.000000,1.000000
3708688.839730,731.000000,1.000000
3708688.846035,667.000000,1.000000
3708688.846039,651.000000,1.000000
3708688.854871,650.000000,1.000000
3708688.854876,665.000000,1.000000
3708688.863678,728.000000,1.000000
3708688.863683,745.000000,1.000000
3708688.868730,746.000000,1.000000
3708688.868738,730.000000,1.000000
3708688.878700,666.000000,1.000000
3708688.878705,650.000000,1.000000
3708688.897584,649.000000,1.000000
3708688.897588,665.000000,1.000000
3708688.897594,728.000000,1.000000
3708688.897595,744.000000,1.000000
3708688.903910,744.000000,1.000000
3708688.903915,729.000000,1.000000
3708688.910238,667.000000,1.000000
3708688.910244,649.000000,1.000000
3708688.917815,648.000000,1.000000
3708688.917822,665.000000,1.000000
3708688.926626,728.000000,1.000000
3708688.926629,746.000000,1.000000
3708688.932934,746.000000,1.000000
3708688.932938,731.000000,1.000000
3708688.941815,667.000000,1.000000
3708688.941821,649.000000,1.000000
3708688.950671,649.000000,1.000000
3708688.950674,662.000000,1.000000
3708688.961985,726.000000,1.000000
3708688.961988,745.000000,1.000000
3708688.965834,745.000000,1.000000
3708688.965838,730.000000,1.000000
3708688.974654,665.000000,1.000000
3708688.974658,648.000000,1.000000
3708688.993523,648.000000,1.000000
3708688.993527,662.000000,1.000000
3708688.993533,725.000000,1.000000
3708688.993536,744.000000,1.000000
3708688.997333,743.000000,1.000000
3708688.997338,727.000000,1.000000
3708689.022492,664.000000,1.000000
3708689.022499,647.000000,1.000000
3708689.036339,646.000000,1.000000
3708689.036344,663.000000,1.000000
3708689.037627,726.000000,1.000000
3708689.037634,743.000000,1.000000
3708689.037640,744.000000,1.000000
3708689.037641,729.000000,1.000000
3708689.040164,665.000000,1.000000
3708689.040168,648.000000,1.000000
3708689.047714,648.000000,1.000000
3708689.047720,663.000000,1.000000
3708689.054021,726.000000,1.000000
3708689.054026,742.000000,1.000000
3708689.062852,743.000000,1.000000
3708689.062870,729.000000,1.000000
3708689.071778,665.000000,1.000000
3708689.071789,648.000000,1.000000
3708689.080614,647.000000,1.000000
3708689.080627,661.000000,1.000000
3708689.086680,725.000000,1.000000
3708689.086682,742.000000,1.000000
3708689.095510,742.000000,1.000000
3708689.095515,727.000000,1.000000
3708689.104381,665.000000,1.000000
3708689.104385,648.000000,1.000000
3708689.110672,647.000000,1.000000
3708689.110675,662.000000,1.000000
3708689.119498,726.000000,1.000000
3708689.119504,743.000000,1.000000
3708689.129676,744.000000,1.000000
3708689.129682,729.000000,1.000000
3708689.133474,665.000000,1.000000
3708689.133478,648.000000,1.000000
3708689.142291,648.000000,1.000000
3708689.142298,663.000000,1.000000
3708689.161201,726.000000,1.000000
3708689.161208,744.000000,1.000000
3708689.161215,744.000000,1.000000
3708689.161216,728.000000,1.000000
3708689.166291,663.000000,1.000000
3708689.166296,646.000000,1.000000
3708689.173620,645.000000,1.000000
3708689.173622,658.000000,1.000000
3708689.182429,724.000000,1.000000
3708689.182433,743.000000,1.000000
3708689.191431,741.000000,1.000000
3708689.191448,727.000000,1.000000
3708689.196619,661.000000,1.000000
3708689.196641,645.000000,1.000000
3708689.207931,644.000000,1.000000
3708689.207934,660.000000,1.000000
3708689.219284,725.000000,1.000000
3708689.219295,742.000000,1.000000
3708689.224357,742.000000,1.000000
3708689.224370,727.000000,1.000000
3708689.230692,663.000000,1.000000
3708689.230697,645.000000,1.000000
3708689.262165,645.000000,1.000000
3708689.262170,660.000000,1.000000
3708689.263441,723.000000,1.000000
3708689.263444,742.000000,1.000000
3708689.264712,742.000000,1.000000
3708689.264718,727.000000,1.000000
3708689.266001,664.000000,1.000000
3708689.266004,646.000000,1.000000
3708689.271039,645.000000,1.000000
3708689.271041,660.000000,1.000000
3708689.289956,723.000000,1.000000
3708689.289961,741.000000,1.000000
3708689.289967,742.000000,1.000000
3708689.289976,727.000000,1.000000
3708689.292500,662.000000,1.000000
3708689.292504,646.000000,1.000000
3708689.322487,645.000000,1.000000
3708689.322495,660.000000,1.000000
3708689.336364,724.000000,1.000000
3708689.336370,740.000000,1.000000
3708689.337635,741.000000,1.000000
3708689.337637,726.000000,1.000000
3708689.338903,662.000000,1.000000
3708689.338905,645.000000,1.000000
3708689.341431,644.000000,1.000000
3708689.341437,659.000000,1.000000
3708689.343958,723.000000,1.000000
3708689.343961,741.000000,1.000000
3708689.351517,741.000000,1.000000
3708689.351527,725.000000,1.000000
3708689.356574,662.000000,1.000000
3708689.356577,646.000000,1.000000
3708689.365409,645.000000,1.000000
3708689.365415,660.000000,1.000000
3708689.374222,723.000000,1.000000
3708689.374227,739.000000,1.000000
3708689.386712,739.000000,1.000000
3708689.386718,725.000000,1.000000
3708689.390530,661.000000,1.000000
3708689.390536,644.000000,1.000000
3708689.398108,643.000000,1.000000
3708689.398114,655.000000,1.000000
3708689.417019,715.000000,1.000000
3708689.417024,731.000000,1.000000
3708689.417039,729.000000,1.000000
3708689.417040,712.000000,1.000000
3708689.423361,646.000000,0.000000
3708689.423365,626.000000,0.000000
3708689.429659,623.000000,0.000000
3708689.429665,635.000000,0.000000
3708689.438468,697.000000,0.000000
3708689.438474,714.000000,0.000000
3708689.457177,711.000000,0.000000
3708689.457182,693.000000,0.000000
3708689.457203,627.000000,1.000000
3708689.457204,608.000000,1.000000
3708689.463505,606.000000,1.000000
3708689.463511,620.000000,1.000000
3708689.469802,683.000000,1.000000
3708689.469805,701.000000,1.000000
3708689.481174,700.000000,1.000000
3708689.481181,686.000000,1.000000
3708689.487498,623.000000,1.000000
3708689.487501,606.000000,1.000000
3708689.493793,606.000000,1.000000
3708689.493795,620.000000,1.000000
3708689.502601,685.000000,1.000000
3708689.502607,702.000000,1.000000
3708689.510169,702.000000,1.000000
3708689.510175,688.000000,1.000000
3708689.519015,625.000000,1.000000
3708689.519020,608.000000,1.000000
3708689.525289,607.000000,1.000000
3708689.525292,621.000000,1.000000
3708689.535467,685.000000,1.000000
3708689.535470,703.000000,1.000000
3708689.554408,703.000000,1.000000
3708689.554414,688.000000,1.000000
3708689.554419,624.000000,1.000000
3708689.554420,607.000000,1.000000
3708689.556949,606.000000,1.000000
3708689.556955,622.000000,1.000000
3708689.568275,685.000000,1.000000
3708689.568281,703.000000,1.000000
3708689.574608,702.000000,1.000000
3708689.574612,687.000000,1.000000
3708689.593517,623.000000,1.000000
3708689.593521,605.000000,1.000000
3708689.593528,606.000000,1.000000
3708689.593530,620.000000,1.000000
3708689.597308,681.000000,1.000000
3708689.597311,697.000000,1.000000
3708689.622557,697.000000,1.000000
3708689.622564,682.000000,1.000000
3708689.635148,618.000000,1.000000
3708689.635153,601.000000,1.000000
3708689.637727,601.000000,1.000000
3708689.637732,615.000000,1.000000
3708689.639003,679.000000,1.000000
3708689.639006,697.000000,1.000000
3708689.644063,699.000000,1.000000
3708689.644066,684.000000,1.000000
3708689.646588,620.000000,1.000000
3708689.646592,603.000000,1.000000
3708689.661676,603.000000,1.000000
3708689.661679,617.000000,1.000000
3708689.664208,680.000000,1.000000
3708689.664211,698.000000,1.000000
3708689.670516,697.000000,1.000000
3708689.670523,682.000000,1.000000
3708689.679372,617.000000,1.000000
3708689.679377,600.000000,1.000000
3708689.686958,600.000000,1.000000
3708689.686964,615.000000,1.000000
3708689.704625,678.000000,1.000000
3708689.704631,697.000000,1.000000
3708689.704637,696.000000,1.000000
3708689.704638,681.000000,1.000000
3708689.710879,617.000000,1.000000
3708689.710882,601.000000,1.000000
3708689.719692,601.000000,1.000000
3708689.719696,615.000000,1.000000
3708689.725993,679.000000,1.000000
3708689.725996,697.000000,1.000000
3708689.734847,698.000000,1.000000
3708689.734852,682.000000,1.000000
3708689.746241,618.000000,1.000000
3708689.746255,601.000000,1.000000
3708689.750043,601.000000,1.000000
3708689.750046,616.000000,1.000000
3708689.758871,679.000000,1.000000
3708689.758874,697.000000,1.000000
3708689.767704,697.000000,1.000000
3708689.767711,681.000000,1.000000
3708689.772848,617.000000,1.000000
3708689.772851,600.000000,1.000000
3708689.781672,599.000000,1.000000
3708689.781675,615.000000,1.000000
3708689.791807,678.000000,1.000000
3708689.791810,695.000000,1.000000
3708689.800668,695.000000,1.000000
3708689.800673,681.000000,1.000000
3708689.806969,617.000000,1.000000
3708689.806973,600.000000,1.000000
3708689.814527,599.000000,1.000000
3708689.814531,614.000000,1.000000
3708689.825858,678.000000,1.000000
3708689.825864,696.000000,1.000000
3708689.829646,696.000000,1.000000
3708689.829650,680.000000,1.000000
3708689.838473,617.000000,1.000000
3708689.838477,600.000000,1.000000
3708689.857373,599.000000,1.000000
3708689.857379,614.000000,1.000000
3708689.857385,677.000000,1.000000
3708689.857391,694.000000,1.000000
3708689.863691,697.000000,1.000000
3708689.863696,681.000000,1.000000
3708689.868738,613.000000,1.000000
3708689.868742,596.000000,1.000000
3708689.878816,596.000000,1.000000
3708689.878819,610.000000,1.000000
3708689.887650,673.000000,1.000000
3708689.887654,690.000000,1.000000
3708689.893961,690.000000,1.000000
3708689.893968,675.000000,1.000000
3708689.922948,611.000000,1.000000
3708689.922952,595.000000,1.000000
3708689.936799,595.000000,1.000000
3708689.936804,610.000000,1.000000
3708689.938073,673.000000,1.000000
3708689.938078,690.000000,1.000000
3708689.939347,691.000000,1.000000
3708689.939353,676.000000,1.000000
3708689.940616,612.000000,1.000000
3708689.940622,595.000000,1.000000
3708689.943144,595.000000,1.000000
3708689.943147,609.000000,1.000000
3708689.950707,673.000000,1.000000
3708689.950712,690.000000,1.000000
3708689.959533,690.000000,1.000000
3708689.959539,675.000000,1.000000
3708689.965835,611.000000,1.000000
3708689.965842,594.000000,1.000000
3708689.984764,594.000000,1.000000
3708689.984770,609.000000,1.000000
3708689.984777,673.000000,1.000000
3708689.984782,690.000000,1.000000
3708689.989833,690.000000,1.000000
3708689.989839,675.000000,1.000000
3708690.002378,613.000000,1.000000
3708690.002383,596.000000,1.000000
3708690.006172,595.000000,1.000000
3708690.006176,610.000000,1.000000
3708690.014987,673.000000,1.000000
3708690.014993,691.000000,1.000000
3708690.021310,691.000000,1.000000
3708690.021316,677.000000,1.000000
3708690.037693,613.000000,1.000000
3708690.037698,594.000000,1.000000
3708690.037704,595.000000,1.000000
3708690.037706,610.000000,1.000000
3708690.046500,673.000000,1.000000
3708690.046502,690.000000,1.000000
3708690.054133,691.000000,1.000000
3708690.054139,675.000000,1.000000
3708690.062982,612.000000,1.000000
3708690.062991,595.000000,1.000000
3708690.071869,595.000000,1.000000
3708690.071874,610.000000,1.000000
3708690.083207,673.000000,1.000000
3708690.083220,691.000000,1.000000
3708690.087027,691.000000,1.000000
3708690.087031,676.000000,1.000000
3708690.095892,612.000000,1.000000
3708690.095896,595.000000,1.000000
3708690.104735,595.000000,1.000000
3708690.104738,609.000000,1.000000
3708690.111026,673.000000,1.000000
3708690.111029,691.000000,1.000000
3708690.119839,690.000000,1.000000
3708690.119844,675.000000,1.000000
3708690.137489,611.000000,1.000000
3708690.137496,594.000000,1.000000
3708690.137503,593.000000,1.000000
3708690.137508,609.000000,1.000000
3708690.142541,673.000000,1.000000
3708690.142547,689.000000,1.000000
3708690.148863,689.000000,1.000000
3708690.148869,675.000000,1.000000
3708690.158902,611.000000,1.000000
3708690.158918,593.000000,1.000000
3708690.167758,594.000000,1.000000
3708690.167762,610.000000,1.000000
3708690.174072,673.000000,1.000000
3708690.174075,690.000000,1.000000
3708690.182896,691.000000,1.000000
3708690.182912,677.000000,1.000000
3708690.191721,613.000000,1.000000
3708690.191725,595.000000,1.000000
3708690.198022,595.000000,1.000000
3708690.198029,609.000000,1.000000
3708690.223194,674.000000,1.000000
3708690.223201,692.000000,1.000000
3708690.235810,692.000000,1.000000
3708690.235816,676.000000,1.000000
3708690.237095,613.000000,1.000000
3708690.237098,597.000000,1.000000
3708690.238365,597.000000,1.000000
3708690.238372,611.000000,1.000000
3708690.240896,673.000000,1.000000
3708690.240902,691.000000,1.000000
3708690.245962,692.000000,1.000000
3708690.245967,677.000000,1.000000
3708690.253379,616.000000,1.000000
3708690.253414,599.000000,1.000000
3708690.262360,596.000000,1.000000
3708690.262363,611.000000,1.000000
3708690.276216,675.000000,1.000000
3708690.276222,692.000000,1.000000
3708690.278757,692.000000,1.000000
3708690.278760,675.000000,1.000000
3708690.286320,613.000000,1.000000
3708690.286324,594.000000,1.000000
3708690.295123,595.000000,1.000000
3708690.295126,610.000000,1.000000
3708690.314023,674.000000,1.000000
3708690.314027,691.000000,1.000000
3708690.314033,691.000000,1.000000
3708690.314035,675.000000,1.000000
3708690.316565,611.000000,2.000000
3708690.316570,593.000000,2.000000
3708690.325401,592.000000,2.000000
3708690.325406,607.000000,2.000000
3708690.334206,670.000000,2.000000
3708690.334209,688.000000,2.000000
3708690.344306,688.000000,2.000000
3708690.344311,674.000000,2.000000
3708690.350606,610.000000,1.000000
3708690.350609,593.000000,1.000000
3708690.358169,592.000000,1.000000
3708690.358175,606.000000,1.000000
3708690.366975,670.000000,1.000000
3708690.366980,686.000000,1.000000
3708690.373286,687.000000,1.000000
3708690.373293,672.000000,1.000000
3708690.382122,608.000000,1.000000
3708690.382128,590.000000,1.000000
3708690.400986,589.000000,1.000000
3708690.400990,604.000000,1.000000
3708690.400997,669.000000,1.000000
3708690.400999,686.000000,1.000000
3708690.407348,687.000000,1.000000
3708690.407353,671.000000,1.000000
3708690.416176,608.000000,1.000000
3708690.416180,591.000000,1.000000
3708690.421232,590.000000,1.000000
3708690.421247,606.000000,1.000000
3708690.433840,669.000000,1.000000
3708690.433843,686.000000,1.000000
3708690.437637,686.000000,1.000000
3708690.437642,670.000000,1.000000
3708690.446481,607.000000,1.000000
3708690.446486,590.000000,1.000000
3708690.455330,590.000000,1.000000
3708690.455333,605.000000,1.000000
3708690.464144,668.000000,1.000000
3708690.464148,686.000000,1.000000
3708690.469217,686.000000,1.000000
3708690.469225,670.000000,1.000000
3708690.478059,607.000000,1.000000
3708690.478066,591.000000,1.000000
3708690.486874,590.000000,1.000000
3708690.486880,605.000000,1.000000
3708690.493188,669.000000,1.000000
3708690.493190,687.000000,1.000000
3708690.522176,686.000000,1.000000
3708690.522184,671.000000,1.000000
3708690.562224,607.000000,1.000000
3708690.562232,590.000000,1.000000
3708690.563546,590.000000,1.000000
3708690.563551,605.000000,1.000000
3708690.564827,669.000000,1.000000
3708690.564833,685.000000,1.000000
3708690.568615,686.000000,1.000000
3708690.568620,671.000000,1.000000
3708690.569886,607.000000,1.000000
3708690.569892,589.000000,1.000000
3708690.576214,588.000000,1.000000
3708690.576218,603.000000,1.000000
3708690.576226,668.000000,1.000000
3708690.576228,685.000000,1.000000
3708690.576233,684.000000,1.000000
3708690.576234,668.000000,1.000000
3708690.577499,604.000000,1.000000
3708690.577502,587.000000,1.000000
3708690.582544,586.000000,1.000000
3708690.582550,602.000000,1.000000
3708690.591355,665.000000,1.000000
3708690.591361,682.000000,1.000000
3708690.602537,682.000000,1.000000
3708690.602546,668.000000,1.000000
3708690.606336,605.000000,1.000000
3708690.606341,586.000000,1.000000
3708690.615155,585.000000,1.000000
3708690.615163,601.000000,1.000000
3708690.623979,665.000000,1.000000
3708690.623984,683.000000,1.000000
3708690.630337,683.000000,1.000000
3708690.630344,668.000000,1.000000
3708690.637938,604.000000,1.000000
3708690.637942,585.000000,1.000000
3708690.646761,585.000000,1.000000
3708690.646768,600.000000,1.000000
3708690.652920,664.000000,1.000000
3708690.652923,682.000000,1.000000
3708690.663106,683.000000,1.000000
3708690.663113,668.000000,1.000000
3708690.672026,604.000000,1.000000
3708690.672029,586.000000,1.000000
3708690.683356,586.000000,1.000000
3708690.683362,601.000000,1.000000
3708690.685886,666.000000,1.000000
3708690.685892,683.000000,1.000000
3708690.694715,683.000000,1.000000
3708690.694722,668.000000,1.000000
3708690.713593,604.000000,1.000000
3708690.713597,587.000000,1.000000
3708690.713603,586.000000,1.000000
3708690.713605,602.000000,1.000000
3708690.717391,665.000000,1.000000
3708690.717397,681.000000,1.000000
3708690.726154,682.000000,1.000000
3708690.726159,668.000000,1.000000
3708690.739852,603.000000,1.000000
3708690.739859,586.000000,1.000000
3708690.742383,587.000000,1.000000
3708690.742386,602.000000,1.000000
3708690.749934,666.000000,1.000000
3708690.749941,682.000000,1.000000
3708690.758766,682.000000,1.000000
3708690.758770,668.000000,1.000000
3708690.770094,604.000000,1.000000
3708690.770097,586.000000,1.000000
3708690.776385,586.000000,1.000000
3708690.776388,600.000000,1.000000
3708690.782677,664.000000,1.000000
3708690.782684,682.000000,1.000000
3708690.790208,683.000000,1.000000
3708690.790229,667.000000,1.000000
3708690.800303,603.000000,1.000000
3708690.800307,587.000000,1.000000
3708690.823087,586.000000,1.000000
3708690.823092,600.000000,1.000000
3708690.837068,664.000000,1.000000
3708690.837073,681.000000,1.000000
3708690.837079,682.000000,1.000000
3708690.837086,666.000000,1.000000
3708690.839638,603.000000,1.000000
3708690.839641,585.000000,1.000000
3708690.843333,585.000000,1.000000
3708690.843336,599.000000,1.000000
3708690.847118,663.000000,1.000000
3708690.847120,681.000000,1.000000
3708690.853516,682.000000,1.000000
3708690.853521,667.000000,1.000000
3708690.862338,603.000000,1.000000
3708690.862343,584.000000,1.000000
3708690.871175,585.000000,1.000000
3708690.871182,601.000000,1.000000
3708690.877237,664.000000,1.000000
3708690.877240,681.000000,1.000000
3708690.886117,681.000000,1.000000
3708690.886124,664.000000,1.000000
3708690.893840,601.000000,1.000000
3708690.893846,585.000000,1.000000
3708690.903909,585.000000,1.000000
3708690.903915,601.000000,1.000000
3708690.908962,664.000000,1.000000
3708690.908967,681.000000,1.000000
3708690.917863,680.000000,1.000000
3708690.917870,665.000000,1.000000
3708690.930443,603.000000,1.000000
3708690.930447,586.000000,1.000000
3708690.934227,585.000000,1.000000
3708690.934230,600.000000,1.000000
3708690.943051,663.000000,1.000000
3708690.943054,680.000000,1.000000
3708690.951879,680.000000,1.000000
3708690.951884,666.000000,1.000000
3708690.960745,602.000000,1.000000
3708690.960753,585.000000,1.000000
3708690.967054,585.000000,1.000000
3708690.967072,600.000000,1.000000
3708690.994736,663.000000,1.000000
3708690.994741,681.000000,1.000000
3708690.994746,681.000000,1.000000
3708690.994747,665.000000,1.000000
3708690.994754,602.000000,1.000000
3708690.994755,584.000000,1.000000
3708690.998533,584.000000,1.000000
3708690.998540,600.000000,1.000000
3708691.007361,664.000000,1.000000
3708691.007364,682.000000,1.000000
3708691.017520,680.000000,1.000000
3708691.017527,665.000000,1.000000
3708691.023830,602.000000,1.000000
3708691.023840,585.000000,1.000000
3708691.030146,584.000000,1.000000
3708691.030157,599.000000,1.000000
3708691.038979,664.000000,1.000000
3708691.038995,681.000000,1.000000
3708691.047837,682.000000,1.000000
3708691.047842,667.000000,1.000000
3708691.054141,604.000000,1.000000
3708691.054144,587.000000,1.000000
3708691.062952,587.000000,1.000000
3708691.062955,601.000000,1.000000
3708691.071603,665.000000,1.000000
3708691.071607,681.000000,1.000000
3708691.080436,681.000000,1.000000
3708691.080441,666.000000,1.000000
3708691.085502,604.000000,1.000000
3708691.085506,586.000000,1.000000
3708691.094316,585.000000,1.000000
3708691.094319,601.000000,1.000000
3708691.125859,664.000000,1.000000
3708691.125863,682.000000,1.000000
3708691.125870,682.000000,1.000000
3708691.125871,667.000000,1.000000
3708691.135921,604.000000,1.000000
3708691.135925,586.000000,1.000000
3708691.137267,586.000000,1.000000
3708691.137272,600.000000,1.000000
3708691.139940,664.000000,1.000000
3708691.139944,682.000000,1.000000
3708691.143729,682.000000,1.000000
3708691.143734,667.000000,1.000000
3708691.150032,604.000000,1.000000
3708691.150036,586.000000,1.000000
3708691.158858,586.000000,1.000000
3708691.158871,601.000000,1.000000
3708691.167711,664.000000,1.000000
3708691.167714,682.000000,1.000000
3708691.174029,681.000000,1.000000
3708691.174036,667.000000,1.000000
3708691.185522,603.000000,1.000000
3708691.185525,586.000000,1.000000
3708691.191825,585.000000,1.000000
3708691.191831,600.000000,1.000000
3708691.198119,664.000000,1.000000
3708691.198122,682.000000,1.000000
3708691.205686,682.000000,1.000000
3708691.205691,667.000000,1.000000
3708691.214504,604.000000,1.000000
3708691.214508,586.000000,1.000000
3708691.223321,586.000000,1.000000
3708691.223327,601.000000,1.000000
3708691.229618,664.000000,1.000000
3708691.229621,682.000000,1.000000
3708691.238481,682.000000,1.000000
3708691.238486,666.000000,1.000000
3708691.258400,602.000000,1.000000
3708691.258405,586.000000,1.000000
3708691.258412,586.000000,1.000000
3708691.258414,601.000000,1.000000
3708691.263447,664.000000,1.000000
3708691.263451,682.000000,1.000000
3708691.269774,682.000000,1.000000
3708691.269780,667.000000,1.000000
3708691.278631,604.000000,1.000000
3708691.278645,586.000000,1.000000
3708691.297506,586.000000,1.000000
3708691.297510,602.000000,1.000000
3708691.297516,665.000000,1.000000
3708691.297532,682.000000,1.000000
3708691.302583,682.000000,1.000000
3708691.302588,667.000000,1.000000
3708691.308898,603.000000,1.000000
3708691.308902,586.000000,1.000000
3708691.320088,586.000000,1.000000
3708691.320094,600.000000,1.000000
3708691.328912,664.000000,1.000000
3708691.328915,682.000000,1.000000
3708691.335230,681.000000,1.000000
3708691.335235,667.000000,1.000000
3708691.344054,603.000000,1.000000
3708691.344059,585.000000,1.000000
3708691.351627,585.000000,1.000000
3708691.351631,600.000000,1.000000
3708691.361702,663.000000,1.000000
3708691.361705,681.000000,1.000000
3708691.365502,681.000000,1.000000
3708691.365507,666.000000,1.000000
3708691.374381,603.000000,1.000000
3708691.374385,586.000000,1.000000
3708691.393232,585.000000,1.000000
3708691.393235,600.000000,1.000000
3708691.393242,664.000000,1.000000
3708691.393244,682.000000,1.000000
3708691.398222,681.000000,1.000000
3708691.398227,667.000000,1.000000
3708691.423388,605.000000,1.000000
3708691.423395,588.000000,1.000000
3708691.437414,588.000000,1.000000
3708691.437419,605.000000,1.000000
3708691.437425,671.000000,1.000000
3708691.437426,689.000000,1.000000
3708691.438702,692.000000,1.000000
3708691.438706,680.000000,1.000000
3708691.441244,621.000000,1.000000
3708691.441295,607.000000,1.000000
3708691.447603,610.000000,1.000000
3708691.447609,627.000000,1.000000
3708691.453898,693.000000,1.000000
3708691.453901,712.000000,1.000000
3708691.462707,713.000000,1.000000
3708691.462711,699.000000,1.000000
3708691.471551,634.000000,1.000000
3708691.471558,616.000000,1.000000
3708691.479138,616.000000,1.000000
3708691.479147,631.000000,1.000000
3708691.485435,694.000000,1.000000
3708691.485441,711.000000,1.000000
3708691.494273,711.000000,1.000000
3708691.494278,696.000000,1.000000
3708691.504185,633.000000,1.000000
3708691.504188,616.000000,1.000000
3708691.510488,615.000000,1.000000
3708691.510492,630.000000,1.000000
3708691.519300,693.000000,1.000000
3708691.519306,711.000000,1.000000
3708691.529213,711.000000,1.000000
3708691.529219,696.000000,1.000000
3708691.533009,633.000000,1.000000
3708691.533013,616.000000,1.000000
3708691.541837,615.000000,1.000000
3708691.541840,630.000000,1.000000
3708691.561681,693.000000,1.000000
3708691.561686,710.000000,1.000000
3708691.561694,710.000000,1.000000
3708691.561695,696.000000,1.000000
3708691.566761,632.000000,1.000000
3708691.566766,615.000000,1.000000
3708691.573065,617.000000,1.000000
3708691.573071,634.000000,1.000000
3708691.582956,696.000000,1.000000
3708691.582960,717.000000,1.000000
3708691.590525,721.000000,1.000000
3708691.590530,710.000000,1.000000
3708691.596829,649.000000,1.000000
3708691.596833,634.000000,1.000000
3708691.606613,636.000000,1.000000
3708691.606619,652.000000,1.000000
3708691.618027,716.000000,1.000000
3708691.618031,732.000000,1.000000
3708691.624351,731.000000,1.000000
3708691.624355,714.000000,1.000000
3708691.630688,651.000000,1.000000
3708691.630693,634.000000,1.000000
3708691.638242,633.000000,1.000000
3708691.638248,647.000000,1.000000
3708691.647052,711.000000,1.000000
3708691.647057,728.000000,1.000000
3708691.653359,729.000000,1.000000
3708691.653365,714.000000,1.000000
3708691.672227,649.000000,1.000000
3708691.672235,631.000000,1.000000
3708691.672242,631.000000,1.000000
3708691.672245,646.000000,1.000000
3708691.678534,711.000000,1.000000
3708691.678537,728.000000,1.000000
3708691.697430,727.000000,1.000000
3708691.697434,711.000000,1.000000
3708691.697440,648.000000,1.000000
3708691.697441,631.000000,1.000000
3708691.722584,630.000000,1.000000
3708691.722589,645.000000,1.000000
3708691.736417,708.000000,1.000000
3708691.736425,724.000000,1.000000
3708691.736431,725.000000,1.000000
3708691.736432,710.000000,1.000000
3708691.737749,646.000000,1.000000
3708691.737751,628.000000,1.000000
3708691.741533,628.000000,1.000000
3708691.741544,643.000000,1.000000
3708691.742899,707.000000,1.000000
3708691.742902,723.000000,1.000000
3708691.751689,724.000000,1.000000
3708691.751694,709.000000,1.000000
3708691.758012,646.000000,1.000000
3708691.758016,629.000000,1.000000
3708691.766839,629.000000,1.000000
3708691.766842,643.000000,1.000000
3708691.775658,706.000000,1.000000
3708691.775661,723.000000,1.000000
3708691.783275,723.000000,1.000000
3708691.783281,708.000000,1.000000
3708691.789609,643.000000,1.000000
3708691.789614,627.000000,1.000000
3708691.819799,626.000000,1.000000
3708691.819805,641.000000,1.000000
3708691.822342,705.000000,1.000000
3708691.822345,721.000000,1.000000
3708691.823624,722.000000,1.000000
3708691.823628,707.000000,1.000000
3708691.824901,644.000000,1.000000
3708691.824904,627.000000,1.000000
3708691.829879,626.000000,1.000000
3708691.829881,641.000000,1.000000
3708691.838703,704.000000,1.000000
3708691.838706,722.000000,1.000000
3708691.857696,722.000000,1.000000
3708691.857703,707.000000,1.000000
3708691.857709,644.000000,1.000000
3708691.857710,626.000000,1.000000
3708691.864006,627.000000,1.000000
3708691.864011,641.000000,1.000000
3708691.870307,704.000000,1.000000
3708691.870313,722.000000,1.000000
3708691.880392,722.000000,1.000000
3708691.880399,706.000000,1.000000
3708691.886729,643.000000,1.000000
3708691.886733,626.000000,1.000000
3708691.893018,626.000000,1.000000
3708691.893021,641.000000,1.000000
3708691.901822,704.000000,1.000000
3708691.901829,721.000000,1.000000
3708691.910654,721.000000,1.000000
3708691.910659,707.000000,1.000000
3708691.920742,643.000000,1.000000
3708691.920746,624.000000,1.000000
3708691.927044,625.000000,1.000000
3708691.927047,640.000000,1.000000
3708691.935723,703.000000,1.000000
3708691.935728,723.000000,1.000000
3708691.953409,723.000000,1.000000
3708691.953414,707.000000,1.000000
3708691.953420,643.000000,1.000000
3708691.953421,626.000000,1.000000
3708691.957204,626.000000,1.000000
3708691.957210,640.000000,1.000000
3708691.968534,704.000000,1.000000
3708691.968540,720.000000,1.000000
3708691.974900,721.000000,1.000000
3708691.974906,706.000000,1.000000
3708691.988771,642.000000,1.000000
3708691.988775,624.000000,1.000000
3708691.991302,625.000000,1.000000
3708691.991307,640.000000,1.000000
3708691.998865,703.000000,1.000000
3708691.998870,720.000000,1.000000
3708692.022524,720.000000,1.000000
3708692.022534,705.000000,1.000000
3708692.036093,642.000000,1.000000
3708692.036099,624.000000,1.000000
3708692.037369,624.000000,1.000000
3708692.037372,639.000000,1.000000
3708692.038638,702.000000,1.000000
3708692.038641,720.000000,1.000000
3708692.041166,720.000000,1.000000
3708692.041170,705.000000,1.000000
3708692.047465,643.000000,1.000000
3708692.047469,625.000000,1.000000
3708692.053778,625.000000,1.000000
3708692.053784,641.000000,1.000000
3708692.063839,704.000000,1.000000
3708692.063842,721.000000,1.000000
3708692.072677,721.000000,1.000000
3708692.072694,706.000000,1.000000
3708692.081510,642.000000,1.000000
3708692.081514,625.000000,1.000000
3708692.086558,623.000000,1.000000
3708692.086564,638.000000,1.000000
3708692.105459,702.000000,1.000000
3708692.105464,720.000000,1.000000
3708692.105492,721.000000,1.000000
3708692.105493,705.000000,1.000000
3708692.111805,642.000000,1.000000
3708692.111808,625.000000,1.000000
3708692.129417,624.000000,1.000000
3708692.129421,640.000000,1.000000
3708692.129427,704.000000,1.000000
3708692.129432,720.000000,1.000000
3708692.133284,720.000000,1.000000
3708692.133292,706.000000,1.000000
3708692.144630,643.000000,1.000000
3708692.144635,625.000000,1.000000
3708692.150932,624.000000,1.000000
3708692.150938,639.000000,1.000000
3708692.157232,703.000000,1.000000
3708692.157238,721.000000,1.000000
3708692.167168,723.000000,1.000000
3708692.167174,710.000000,1.000000
3708692.174837,647.000000,1.000000
3708692.174842,630.000000,1.000000
3708692.183661,633.000000,1.000000
3708692.183666,653.000000,1.000000
3708692.189961,722.000000,1.000000
3708692.189966,745.000000,1.000000
3708692.198782,748.000000,1.000000
3708692.198787,738.000000,1.000000
3708692.207607,677.000000,1.000000
3708692.207614,663.000000,1.000000
3708692.213912,664.000000,1.000000
3708692.213918,682.000000,1.000000
3708692.223981,749.000000,1.000000
3708692.223987,766.000000,1.000000
3708692.230366,768.000000,1.000000
3708692.230372,751.000000,1.000000
3708692.250319,688.000000,1.000000
3708692.250323,670.000000,1.000000
3708692.250330,668.000000,1.000000
3708692.250331,681.000000,1.000000
3708692.254109,743.000000,1.000000
3708692.254114,758.000000,1.000000
3708692.262990,756.000000,1.000000
3708692.262995,740.000000,1.000000
3708692.281882,676.000000,1.000000
3708692.281886,659.000000,1.000000
3708692.281892,658.000000,1.000000
3708692.281893,672.000000,1.000000
3708692.286921,735.000000,1.000000
3708692.286924,752.000000,1.000000
3708692.293219,753.000000,1.000000
3708692.293225,737.000000,1.000000
3708692.323203,672.000000,1.000000
3708692.323211,656.000000,1.000000
3708692.337104,656.000000,1.000000
3708692.337110,671.000000,1.000000
3708692.338420,734.000000,1.000000
3708692.338425,752.000000,1.000000
3708692.339693,753.000000,1.000000
3708692.339698,738.000000,1.000000
3708692.340966,673.000000,1.000000
3708692.340972,656.000000,1.000000
3708692.343491,656.000000,1.000000
3708692.343494,672.000000,1.000000
3708692.351033,735.000000,1.000000
3708692.351038,752.000000,1.000000
3708692.359871,753.000000,1.000000
3708692.359877,738.000000,1.000000
3708692.366191,674.000000,1.000000
3708692.366196,657.000000,1.000000
3708692.385054,657.000000,1.000000
3708692.385061,672.000000,1.000000
3708692.385068,735.000000,1.000000
3708692.385069,753.000000,1.000000
3708692.390123,753.000000,1.000000
3708692.390128,738.000000,1.000000
3708692.410026,675.000000,1.000000
3708692.410031,657.000000,1.000000
3708692.410038,656.000000,1.000000
3708692.410039,672.000000,1.000000
3708692.413816,736.000000,1.000000
3708692.413819,753.000000,1.000000
3708692.421392,754.000000,1.000000
3708692.421399,738.000000,1.000000
3708692.428962,675.000000,1.000000
3708692.428967,658.000000,1.000000
3708692.438915,658.000000,1.000000
3708692.438921,672.000000,1.000000
3708692.447740,737.000000,1.000000
3708692.447743,754.000000,1.000000
3708692.454069,754.000000,1.000000
3708692.454073,738.000000,1.000000
3708692.462892,674.000000,1.000000
3708692.462898,658.000000,1.000000
3708692.471714,658.000000,1.000000
3708692.471719,674.000000,1.000000
3708692.477953,738.000000,1.000000
3708692.477956,754.000000,1.000000
3708692.486794,755.000000,1.000000
3708692.486802,740.000000,1.000000
3708692.498136,677.000000,1.000000
3708692.498140,659.000000,1.000000
3708692.504448,658.000000,1.000000
3708692.504452,673.000000,1.000000
3708692.510745,736.000000,1.000000
3708692.510748,754.000000,1.000000
3708692.519577,755.000000,1.000000
3708692.519581,740.000000,1.000000
3708692.537204,675.000000,1.000000
3708692.537212,657.000000,1.000000
3708692.537218,658.000000,1.000000
3708692.537220,674.000000,1.000000
3708692.543356,737.000000,1.000000
3708692.543359,755.000000,1.000000
3708692.549662,755.000000,1.000000
3708692.549666,739.000000,1.000000
3708692.558510,676.000000,1.000000
3708692.558514,659.000000,1.000000
3708692.567343,658.000000,1.000000
3708692.567349,674.000000,1.000000
3708692.572375,737.000000,1.000000
3708692.572378,755.000000,1.000000
3708692.584880,755.000000,1.000000
3708692.584884,740.000000,1.000000
3708692.591232,676.000000,1.000000
3708692.591238,659.000000,1.000000
3708692.597537,659.000000,1.000000
3708692.597543,673.000000,1.000000
3708692.622822,736.000000,1.000000
3708692.622829,754.000000,1.000000
3708692.636671,755.000000,1.000000
3708692.636674,739.000000,1.000000
3708692.637943,677.000000,1.000000
3708692.637948,660.000000,1.000000
3708692.639216,660.000000,1.000000
3708692.639219,675.000000,1.000000
3708692.641744,738.000000,1.000000
3708692.641747,756.000000,1.000000
3708692.648067,756.000000,1.000000
3708692.648071,741.000000,1.000000
3708692.654383,677.000000,1.000000
3708692.654387,660.000000,1.000000
3708692.663204,659.000000,1.000000
3708692.663219,674.000000,1.000000
3708692.682108,738.000000,1.000000
3708692.682113,756.000000,1.000000
3708692.682119,755.000000,1.000000
3708692.682120,739.000000,1.000000
3708692.687169,675.000000,1.000000
3708692.687172,658.000000,1.000000
3708692.695869,659.000000,1.000000
3708692.695872,673.000000,1.000000
3708692.702169,736.000000,1.000000
3708692.702175,754.000000,1.000000
3708692.711008,755.000000,1.000000
3708692.711013,739.000000,1.000000
3708692.717312,675.000000,1.000000
3708692.717314,660.000000,1.000000
3708692.725913,658.000000,1.000000
3708692.725917,674.000000,1.000000
3708692.735986,738.000000,1.000000
3708692.735988,755.000000,1.000000
3708692.741047,755.000000,1.000000
3708692.741052,741.000000,1.000000
3708692.752408,677.000000,1.000000
3708692.752412,660.000000,1.000000
3708692.758716,660.000000,1.000000
3708692.758721,674.000000,1.000000
3708692.767539,737.000000,1.000000
3708692.767542,755.000000,1.000000
3708692.773853,757.000000,1.000000
3708692.773860,742.000000,1.000000
3708692.782694,677.000000,1.000000
3708692.782698,658.000000,1.000000
3708692.791511,660.000000,1.000000
3708692.791517,675.000000,1.000000
3708692.800224,739.000000,1.000000
3708692.800230,755.000000,1.000000
3708692.805345,757.000000,1.000000
3708692.805350,742.000000,1.000000
3708692.814165,677.000000,0.000000
3708692.814168,660.000000,0.000000
3708692.833024,658.000000,0.000000
3708692.833028,672.000000,0.000000
3708692.833035,736.000000,0.000000
3708692.833037,753.000000,0.000000
3708692.838108,752.000000,0.000000
3708692.838113,737.000000,0.000000
3708692.850718,673.000000,0.000000
3708692.850723,654.000000,0.000000
3708692.853247,652.000000,0.000000
3708692.853252,667.000000,0.000000
3708692.863307,729.000000,0.000000
3708692.863310,746.000000,0.000000
3708692.870883,745.000000,0.000000
3708692.870888,730.000000,0.000000
3708692.877206,664.000000,0.000000
3708692.877210,648.000000,0.000000
3708692.886019,647.000000,0.000000
3708692.886023,660.000000,0.000000
3708692.896087,724.000000,0.000000
3708692.896091,742.000000,0.000000
3708692.926269,743.000000,0.000000
3708692.926274,726.000000,0.000000
3708692.936451,662.000000,0.000000
3708692.936479,644.000000,0.000000
3708692.937756,644.000000,0.000000
3708692.937759,658.000000,0.000000
3708692.939030,720.000000,0.000000
3708692.939032,739.000000,0.000000
3708692.940303,739.000000,0.000000
3708692.940341,724.000000,0.000000
3708692.943920,662.000000,1.000000
3708692.943936,644.000000,1.000000
3708692.959036,643.000000,1.000000
3708692.959041,658.000000,1.000000
3708692.959047,721.000000,1.000000
3708692.959048,739.000000,1.000000
3708692.966602,739.000000,1.000000
3708692.966608,723.000000,1.000000
3708692.975419,660.000000,1.000000
3708692.975422,643.000000,1.000000
3708692.993040,642.000000,1.000000
3708692.993044,658.000000,1.000000
3708692.993050,721.000000,1.000000
3708692.993051,738.000000,1.000000
3708692.996837,738.000000,1.000000
3708692.996843,724.000000,1.000000
3708693.005682,661.000000,1.000000
3708693.005688,643.000000,1.000000
3708693.017012,642.000000,1.000000
3708693.017018,657.000000,1.000000
3708693.024586,720.000000,1.000000
3708693.024590,738.000000,1.000000
3708693.030988,739.000000,1.000000
3708693.030993,724.000000,1.000000
3708693.038568,660.000000,1.000000
3708693.038588,642.000000,1.000000
3708693.047472,642.000000,1.000000
3708693.047476,657.000000,1.000000
3708693.053779,721.000000,1.000000
3708693.053785,739.000000,1.000000
3708693.062626,739.000000,1.000000
3708693.062648,724.000000,1.000000
3708693.071590,660.000000,1.000000
3708693.071593,643.000000,1.000000
3708693.100531,642.000000,1.000000
3708693.100536,657.000000,1.000000
3708693.103073,720.000000,1.000000
3708693.103076,738.000000,1.000000
3708693.104347,738.000000,1.000000
3708693.104386,722.000000,1.000000
3708693.104415,659.000000,1.000000
3708693.104417,642.000000,1.000000
3708693.109448,642.000000,1.000000
3708693.109451,656.000000,1.000000
3708693.118251,719.000000,1.000000
3708693.118257,737.000000,1.000000
3708693.137125,737.000000,1.000000
3708693.137133,722.000000,1.000000
3708693.137139,659.000000,1.000000
3708693.137142,642.000000,1.000000
3708693.143429,641.000000,1.000000
3708693.143432,655.000000,1.000000
3708693.149721,719.000000,1.000000
3708693.149723,736.000000,1.000000
3708693.158513,736.000000,1.000000
3708693.158519,722.000000,1.000000
3708693.167349,658.000000,1.000000
3708693.167360,642.000000,1.000000
3708693.173661,641.000000,1.000000
3708693.173668,657.000000,1.000000
3708693.182472,721.000000,1.000000
3708693.182478,738.000000,1.000000
3708693.193869,738.000000,1.000000
3708693.193874,722.000000,1.000000
3708693.197656,657.000000,1.000000
3708693.197667,640.000000,1.000000
3708693.222827,640.000000,1.000000
3708693.222833,655.000000,1.000000
3708693.235421,718.000000,1.000000
3708693.235427,735.000000,1.000000
3708693.236694,735.000000,1.000000
3708693.236701,721.000000,1.000000
3708693.237965,657.000000,1.000000
3708693.237967,639.000000,1.000000
3708693.241729,639.000000,1.000000
3708693.241732,655.000000,1.000000
3708693.248033,718.000000,1.000000
3708693.248039,735.000000,1.000000
3708693.256895,736.000000,1.000000
3708693.256900,720.000000,1.000000
3708693.263193,657.000000,1.000000
3708693.263197,640.000000,1.000000
3708693.272013,640.000000,1.000000
3708693.272019,655.000000,1.000000
3708693.278314,719.000000,1.000000
3708693.278317,736.000000,1.000000
3708693.287134,736.000000,1.000000
3708693.287139,721.000000,1.000000
3708693.295956,657.000000,1.000000
3708693.295960,641.000000,1.000000
3708693.303514,640.000000,1.000000
3708693.303520,654.000000,1.000000
3708693.309811,717.000000,1.000000
3708693.309814,735.000000,1.000000
3708693.318730,736.000000,1.000000
3708693.318740,721.000000,1.000000
3708693.327565,657.000000,1.000000
3708693.327570,640.000000,1.000000
3708693.333955,640.000000,1.000000
3708693.333961,654.000000,1.000000
3708693.342774,718.000000,1.000000
3708693.342776,736.000000,1.000000
3708693.354114,736.000000,1.000000
3708693.354125,721.000000,1.000000
3708693.357907,658.000000,1.000000
3708693.357911,639.000000,1.000000
3708693.366740,638.000000,1.000000
3708693.366743,652.000000,1.000000
3708693.375560,716.000000,1.000000
3708693.375565,732.000000,1.000000
3708693.393274,730.000000,1.000000
3708693.393279,712.000000,1.000000
3708693.393286,647.000000,0.000000
3708693.393287,628.000000,0.000000
3708693.397069,625.000000,0.000000
3708693.397073,638.000000,0.000000
3708693.405871,700.000000,0.000000
3708693.405874,716.000000,0.000000
3708693.414695,714.000000,0.000000
3708693.414699,696.000000,0.000000
3708693.422097,631.000000,1.000000
3708693.422101,612.000000,1.000000
3708693.430925,610.000000,1.000000
3708693.430930,624.000000,1.000000
3708693.441013,687.000000,1.000000
3708693.441016,701.000000,1.000000
3708693.447338,700.000000,1.000000
3708693.447355,683.000000,1.000000
3708693.453821,618.000000,1.000000
3708693.453826,599.000000,1.000000
3708693.462629,598.000000,1.000000
3708693.462633,612.000000,1.000000
3708693.471446,675.000000,1.000000
3708693.471449,691.000000,1.000000
3708693.480323,691.000000,1.000000
3708693.480327,676.000000,1.000000
3708693.486623,612.000000,1.000000
3708693.486628,595.000000,1.000000
3708693.495451,595.000000,1.000000
3708693.495454,610.000000,1.000000
3708693.526941,673.000000,1.000000
3708693.526946,692.000000,1.000000
3708693.526952,692.000000,1.000000
3708693.526977,677.000000,1.000000
3708693.537051,613.000000,1.000000
3708693.537058,596.000000,1.000000
3708693.538327,595.000000,1.000000
3708693.538333,611.000000,1.000000
3708693.539606,675.000000,1.000000
3708693.539613,692.000000,1.000000
3708693.543375,692.000000,1.000000
3708693.543381,677.000000,1.000000
3708693.549692,614.000000,1.000000
3708693.549697,596.000000,1.000000
3708693.558512,596.000000,1.000000
3708693.558518,611.000000,1.000000
3708693.567319,675.000000,1.000000
3708693.567325,692.000000,1.000000
3708693.573661,692.000000,1.000000
3708693.573666,677.000000,1.000000
3708693.582311,614.000000,1.000000
3708693.582317,597.000000,1.000000
3708693.591129,597.000000,1.000000
3708693.591134,612.000000,1.000000
3708693.597436,675.000000,1.000000
3708693.597439,693.000000,1.000000
3708693.608784,692.000000,1.000000
3708693.608789,677.000000,1.000000
3708693.615108,615.000000,1.000000
3708693.615115,597.000000,1.000000
3708693.623940,597.000000,1.000000
3708693.623946,612.000000,1.000000
3708693.630232,675.000000,1.000000
3708693.630235,693.000000,1.000000
3708693.639058,694.000000,1.000000
3708693.639062,679.000000,1.000000
3708693.647933,615.000000,1.000000
3708693.647936,596.000000,1.000000
3708693.656747,597.000000,1.000000
3708693.656751,613.000000,1.000000
3708693.663050,674.000000,1.000000
3708693.663052,689.000000,1.000000
3708693.681933,689.000000,1.000000
3708693.681940,673.000000,1.000000
3708693.681947,609.000000,1.000000
3708693.681948,592.000000,1.000000
3708693.688262,592.000000,1.000000
3708693.688268,608.000000,1.000000
3708693.694558,669.000000,1.000000
3708693.694561,687.000000,1.000000
3708693.703381,688.000000,1.000000
3708693.703388,672.000000,1.000000
3708693.710952,609.000000,1.000000
3708693.710956,591.000000,1.000000
3708693.717287,591.000000,1.000000
3708693.717290,606.000000,1.000000
3708693.726100,669.000000,1.000000
3708693.726103,687.000000,1.000000
3708693.736188,687.000000,1.000000
3708693.736193,672.000000,1.000000
3708693.745016,609.000000,1.000000
3708693.745019,592.000000,1.000000
3708693.751318,592.000000,1.000000
3708693.751324,606.000000,1.000000
3708693.760049,670.000000,1.000000
3708693.760052,687.000000,1.000000
3708693.767680,687.000000,1.000000
3708693.767685,672.000000,1.000000
3708693.777782,609.000000,1.000000
3708693.777786,592.000000,1.000000
3708693.781571,591.000000,1.000000
3708693.781577,606.000000,1.000000
3708693.792902,670.000000,1.000000
3708693.792905,687.000000,1.000000
3708693.796761,688.000000,1.000000
3708693.796769,672.000000,1.000000
3708693.821974,609.000000,1.000000
3708693.821979,591.000000,1.000000
3708693.837012,591.000000,1.000000
3708693.837019,606.000000,1.000000
3708693.838294,670.000000,1.000000
3708693.838297,687.000000,1.000000
3708693.839574,688.000000,1.000000
3708693.839579,672.000000,1.000000
3708693.840842,610.000000,1.000000
3708693.840845,592.000000,1.000000
3708693.847130,591.000000,1.000000
3708693.847133,606.000000,1.000000
3708693.853426,669.000000,1.000000
3708693.853432,687.000000,1.000000
3708693.862256,688.000000,1.000000
3708693.862261,673.000000,1.000000
3708693.870897,608.000000,1.000000
3708693.870902,592.000000,1.000000
3708693.875980,591.000000,1.000000
3708693.875983,607.000000,1.000000
3708693.887311,671.000000,1.000000
3708693.887317,688.000000,1.000000
3708693.894969,688.000000,1.000000
3708693.894974,673.000000,1.000000
3708693.903813,609.000000,1.000000
3708693.903817,591.000000,1.000000
3708693.910115,591.000000,1.000000
3708693.910118,606.000000,1.000000
3708693.918920,669.000000,1.000000
3708693.918923,687.000000,1.000000
3708693.937829,687.000000,1.000000
3708693.937839,672.000000,1.000000
3708693.937845,609.000000,1.000000
3708693.937847,592.000000,1.000000
3708693.942883,594.000000,1.000000
3708693.942886,608.000000,1.000000
3708693.959243,669.000000,1.000000
3708693.959249,686.000000,1.000000
3708693.959255,686.000000,1.000000
3708693.959256,671.000000,1.000000
3708693.965567,609.000000,1.000000
3708693.965571,591.000000,1.000000
3708693.975464,590.000000,1.000000
3708693.975467,606.000000,1.000000
3708693.984282,670.000000,1.000000
3708693.984286,688.000000,1.000000
3708693.990597,688.000000,1.000000
3708693.990602,672.000000,1.000000
3708693.998186,608.000000,1.000000
3708693.998197,590.000000,1.000000
3708694.007044,590.000000,1.000000
3708694.007049,605.000000,1.000000
3708694.013101,667.000000,1.000000
3708694.013106,685.000000,1.000000
3708694.021934,685.000000,1.000000
3708694.021939,670.000000,1.000000
3708694.034351,606.000000,1.000000
3708694.034356,588.000000,1.000000
3708694.038137,588.000000,1.000000
3708694.038143,603.000000,1.000000
3708694.046941,666.000000,1.000000
3708694.046944,684.000000,1.000000
3708694.054518,683.000000,1.000000
3708694.054523,668.000000,1.000000
3708694.073384,604.000000,1.000000
3708694.073390,587.000000,1.000000
3708694.073397,587.000000,1.000000
3708694.073398,602.000000,1.000000
3708694.077173,664.000000,1.000000
3708694.077176,682.000000,1.000000
3708694.085991,683.000000,1.000000
3708694.085996,668.000000,1.000000
3708694.099677,604.000000,1.000000
3708694.099681,587.000000,1.000000
3708694.123680,587.000000,1.000000
3708694.123687,602.000000,1.000000
3708694.123695,666.000000,1.000000
3708694.123696,682.000000,1.000000
3708694.136294,682.000000,1.000000
3708694.136298,667.000000,1.000000
3708694.137567,603.000000,1.000000
3708694.137572,585.000000,1.000000
3708694.140097,585.000000,1.000000
3708694.140104,601.000000,1.000000
3708694.142630,664.000000,1.000000
3708694.142633,681.000000,1.000000
3708694.151476,681.000000,1.000000
3708694.151481,666.000000,1.000000
3708694.156520,603.000000,1.000000
3708694.156533,586.000000,1.000000
3708694.165349,585.000000,1.000000
3708694.165356,600.000000,1.000000
3708694.174166,664.000000,1.000000
3708694.174169,681.000000,1.000000
3708694.184388,680.000000,1.000000
3708694.184401,666.000000,1.000000
3708694.190705,603.000000,1.000000
3708694.190709,587.000000,1.000000
3708694.199532,586.000000,1.000000
3708694.199535,600.000000,1.000000
3708694.210895,665.000000,1.000000
3708694.210899,683.000000,1.000000
3708694.214681,683.000000,1.000000
3708694.214685,668.000000,1.000000
3708694.223503,604.000000,1.000000
3708694.223510,586.000000,1.000000
3708694.241190,586.000000,1.000000
3708694.241197,601.000000,1.000000
3708694.241203,665.000000,1.000000
3708694.241205,681.000000,1.000000
3708694.247515,681.000000,1.000000
3708694.247522,667.000000,1.000000
3708694.253851,604.000000,1.000000
3708694.253855,586.000000,1.000000
3708694.271465,586.000000,1.000000
3708694.271469,602.000000,1.000000
3708694.271475,666.000000,1.000000
3708694.271477,683.000000,1.000000
3708694.277878,683.000000,1.000000
3708694.277883,667.000000,1.000000
3708694.285466,604.000000,1.000000
3708694.285470,587.000000,1.000000
3708694.294274,586.000000,1.000000
3708694.294277,601.000000,1.000000
3708694.303083,664.000000,1.000000
3708694.303089,681.000000,1.000000
3708694.310544,681.000000,1.000000
3708694.310549,666.000000,1.000000
3708694.319352,602.000000,1.000000
3708694.319355,586.000000,1.000000
3708694.328205,586.000000,1.000000
3708694.328208,601.000000,1.000000
3708694.334515,665.000000,1.000000
3708694.334520,681.000000,1.000000
3708694.343351,682.000000,1.000000
3708694.343356,667.000000,1.000000
3708694.357248,603.000000,1.000000
3708694.357252,587.000000,1.000000
3708694.381380,586.000000,1.000000
3708694.381385,601.000000,1.000000
3708694.382658,664.000000,1.000000
3708694.382662,682.000000,1.000000
3708694.383940,682.000000,1.000000
3708694.383943,668.000000,1.000000
3708694.386464,604.000000,1.000000
3708694.386471,586.000000,1.000000
3708694.391516,587.000000,1.000000
3708694.391519,602.000000,1.000000
3708694.397806,665.000000,1.000000
3708694.397809,682.000000,1.000000
3708694.426786,682.000000,1.000000
3708694.426790,667.000000,1.000000
3708694.436855,604.000000,1.000000
3708694.436860,586.000000,1.000000
3708694.436866,586.000000,1.000000
3708694.436874,602.000000,1.000000
3708694.438143,665.000000,1.000000
3708694.438147,682.000000,1.000000
3708694.441716,682.000000,1.000000
3708694.441720,667.000000,1.000000
3708694.448055,604.000000,1.000000
3708694.448058,587.000000,1.000000
3708694.456892,586.000000,1.000000
3708694.456897,602.000000,1.000000
3708694.463194,666.000000,1.000000
3708694.463197,682.000000,1.000000
3708694.472037,682.000000,1.000000
3708694.472043,667.000000,1.000000
3708694.479789,604.000000,1.000000
3708694.479793,587.000000,1.000000
3708694.486101,587.000000,1.000000
3708694.486104,601.000000,1.000000
3708694.504978,665.000000,1.000000
3708694.504983,682.000000,1.000000
3708694.504989,683.000000,1.000000
3708694.504990,668.000000,1.000000
3708694.511315,605.000000,1.000000
3708694.511320,588.000000,1.000000
3708694.530193,587.000000,1.000000
3708694.530198,602.000000,1.000000
3708694.530204,665.000000,1.000000
3708694.530206,683.000000,1.000000
3708694.534013,684.000000,1.000000
3708694.534019,668.000000,1.000000
3708694.541602,604.000000,1.000000
3708694.541611,587.000000,1.000000
3708694.550412,586.000000,1.000000
3708694.550415,601.000000,1.000000
3708694.556720,665.000000,1.000000
3708694.556723,683.000000,1.000000
3708694.566751,682.000000,1.000000
3708694.566756,667.000000,1.000000
3708694.575571,605.000000,1.000000
3708694.575575,589.000000,1.000000
3708694.584391,589.000000,1.000000
3708694.584397,604.000000,1.000000
3708694.590694,667.000000,1.000000
3708694.590699,683.000000,1.000000
3708694.598264,683.000000,1.000000
3708694.598272,668.000000,1.000000
3708694.607133,605.000000,1.000000
3708694.607139,588.000000,1.000000
3708694.613443,588.000000,1.000000
3708694.613449,603.000000,1.000000
3708694.622252,666.000000,1.000000
3708694.622258,684.000000,1.000000
3708694.633582,684.000000,1.000000
3708694.633587,669.000000,1.000000
3708694.636126,605.000000,1.000000
3708694.636130,588.000000,1.000000
3708694.646146,588.000000,1.000000
3708694.646152,603.000000,1.000000
3708694.654969,667.000000,1.000000
3708694.654975,684.000000,1.000000
3708694.673857,685.000000,1.000000
3708694.673861,672.000000,1.000000
3708694.673867,610.000000,1.000000
3708694.673869,593.000000,1.000000
3708694.677641,595.000000,1.000000
3708694.677644,614.000000,1.000000
3708694.686451,681.000000,1.000000
3708694.686454,700.000000,1.000000
3708694.695273,702.000000,1.000000
3708694.695279,689.000000,1.000000
3708694.700316,625.000000,1.000000
3708694.700320,608.000000,1.000000
3708694.722944,608.000000,1.000000
3708694.722950,623.000000,1.000000
3708694.735556,685.000000,1.000000
3708694.735562,703.000000,1.000000
3708694.736884,703.000000,1.000000
3708694.736887,687.000000,1.000000
3708694.740666,624.000000,1.000000
3708694.740673,607.000000,1.000000
3708694.743195,608.000000,1.000000
3708694.743198,623.000000,1.000000
3708694.750749,686.000000,1.000000
3708694.750755,703.000000,1.000000
3708694.758393,703.000000,1.000000
3708694.758397,689.000000,1.000000
3708694.777274,625.000000,1.000000
3708694.777278,608.000000,1.000000
3708694.777284,607.000000,1.000000
3708694.777286,623.000000,1.000000
3708694.783587,686.000000,1.000000
3708694.783593,703.000000,1.000000
3708694.789902,703.000000,1.000000
3708694.789907,688.000000,1.000000
3708694.797480,624.000000,1.000000
3708694.797484,606.000000,1.000000
3708694.808830,608.000000,1.000000
3708694.808834,623.000000,1.000000
3708694.813891,686.000000,1.000000
3708694.813894,703.000000,1.000000
3708694.822764,704.000000,1.000000
3708694.822770,688.000000,1.000000
3708694.831599,624.000000,1.000000
3708694.831603,606.000000,1.000000
3708694.837912,606.000000,1.000000
3708694.837917,622.000000,1.000000
3708694.846720,685.000000,1.000000
3708694.846724,702.000000,1.000000
3708694.855606,702.000000,1.000000
3708694.855614,686.000000,1.000000
3708694.863186,624.000000,1.000000
3708694.863200,607.000000,1.000000
3708694.869529,609.000000,1.000000
3708694.869535,627.000000,1.000000
3708694.878341,690.000000,1.000000
3708694.878344,708.000000,1.000000
3708694.889705,712.000000,1.000000
3708694.889712,702.000000,1.000000
3708694.893500,640.000000,1.000000
3708694.893504,624.000000,1.000000
3708694.902316,625.000000,1.000000
3708694.902322,641.000000,1.000000
3708694.922316,705.000000,1.000000
3708694.922321,722.000000,1.000000
3708694.922327,721.000000,1.000000
3708694.922328,706.000000,1.000000
3708694.927507,642.000000,1.000000
3708694.927511,624.000000,1.000000
3708694.936329,623.000000,1.000000
3708694.936333,638.000000,1.000000
3708694.942629,702.000000,1.000000
3708694.942634,719.000000,1.000000
3708694.956510,719.000000,1.000000
3708694.956521,705.000000,1.000000
3708694.962863,641.000000,1.000000
3708694.962867,621.000000,1.000000
3708694.965392,622.000000,1.000000
3708694.965397,637.000000,1.000000
3708694.976722,700.000000,1.000000
3708694.976725,718.000000,1.000000
3708694.983026,718.000000,1.000000
3708694.983031,702.000000,1.000000
3708694.989374,638.000000,1.000000
3708694.989378,620.000000,1.000000
3708694.998211,620.000000,1.000000
3708694.998215,635.000000,1.000000
3708695.023356,698.000000,1.000000
3708695.023367,715.000000,1.000000
3708695.037216,715.000000,1.000000
3708695.037222,700.000000,1.000000
3708695.038489,636.000000,1.000000
3708695.038495,618.000000,1.000000
3708695.038501,618.000000,1.000000
3708695.038504,632.000000,1.000000
3708695.041031,695.000000,1.000000
3708695.041034,715.000000,1.000000
3708695.047336,715.000000,1.000000
3708695.047341,699.000000,1.000000
3708695.063689,635.000000,1.000000
3708695.063693,619.000000,1.000000
3708695.066217,620.000000,1.000000
3708695.066222,635.000000,1.000000
3708695.069997,697.000000,1.000000
3708695.070000,715.000000,1.000000
3708695.090140,714.000000,1.000000
3708695.090145,699.000000,1.000000
3708695.090151,634.000000,1.000000
3708695.090153,617.000000,1.000000
3708695.093930,615.000000,1.000000
3708695.093933,630.000000,1.000000
3708695.102758,693.000000,1.000000
3708695.102761,711.000000,1.000000
3708695.111586,711.000000,1.000000
3708695.111591,695.000000,1.000000
3708695.116686,631.000000,1.000000
3708695.116690,614.000000,1.000000
3708695.125492,614.000000,1.000000
3708695.125498,629.000000,1.000000
3708695.134293,692.000000,1.000000
3708695.134298,710.000000,1.000000
3708695.145668,711.000000,1.000000
3708695.145673,696.000000,1.000000
3708695.149465,632.000000,1.000000
3708695.149469,615.000000,1.000000
3708695.159391,614.000000,1.000000
3708695.159394,629.000000,1.000000
3708695.168201,692.000000,1.000000
3708695.168207,710.000000,1.000000
3708695.174514,711.000000,1.000000
3708695.174521,696.000000,1.000000
3708695.182100,632.000000,1.000000
3708695.182104,615.000000,1.000000
3708695.200962,614.000000,1.000000
3708695.200966,630.000000,1.000000
3708695.200972,694.000000,1.000000
3708695.200973,711.000000,1.000000
3708695.207291,711.000000,1.000000
3708695.207296,696.000000,1.000000
3708695.216119,633.000000,1.000000
3708695.216123,615.000000,1.000000
3708695.221156,615.000000,1.000000
3708695.221163,630.000000,1.000000
3708695.232513,694.000000,1.000000
3708695.232516,711.000000,1.000000
3708695.237607,712.000000,1.000000
3708695.237614,697.000000,1.000000
3708695.246439,633.000000,1.000000
3708695.246443,616.000000,1.000000
3708695.255268,616.000000,1.000000
3708695.255273,631.000000,1.000000
3708695.261569,695.000000,1.000000
3708695.261572,711.000000,1.000000
3708695.270405,711.000000,1.000000
3708695.270411,697.000000,1.000000
3708695.279235,634.000000,1.000000
3708695.279239,617.000000,1.000000
3708695.288074,617.000000,1.000000
3708695.288080,633.000000,1.000000
3708695.294369,696.000000,1.000000
3708695.294372,713.000000,1.000000
3708695.322096,714.000000,1.000000
3708695.322103,698.000000,1.000000
3708695.337026,635.000000,1.000000
3708695.337031,617.000000,1.000000
3708695.338301,616.000000,1.000000
3708695.338309,632.000000,1.000000
3708695.339581,694.000000,1.000000
3708695.339584,712.000000,1.000000
3708695.340855,713.000000,1.000000
3708695.340858,700.000000,1.000000
3708695.343382,636.000000,1.000000
3708695.343385,618.000000,1.000000
3708695.360984,619.000000,1.000000
3708695.360987,636.000000,1.000000
3708695.360994,701.000000,1.000000
3708695.360997,719.000000,1.000000
3708695.367394,720.000000,1.000000
3708695.367399,705.000000,1.000000
3708695.376212,642.000000,1.000000
3708695.376216,624.000000,1.000000
3708695.381256,623.000000,1.000000
3708695.381262,639.000000,1.000000
3708695.390065,702.000000,1.000000
3708695.390070,719.000000,1.000000
3708695.397521,719.000000,1.000000
3708695.397537,704.000000,1.000000
3708695.406339,640.000000,1.000000
3708695.406344,623.000000,1.000000
3708695.415192,623.000000,1.000000
3708695.415198,639.000000,1.000000
3708695.424017,702.000000,1.000000
3708695.424021,718.000000,1.000000
3708695.430362,719.000000,1.000000
3708695.430370,704.000000,1.000000
3708695.439200,640.000000,1.000000
3708695.439204,624.000000,1.000000
3708695.448038,623.000000,1.000000
3708695.448045,638.000000,1.000000
3708695.454340,702.000000,1.000000
3708695.454343,719.000000,1.000000
3708695.461949,719.000000,1.000000
3708695.461956,704.000000,1.000000
3708695.470779,640.000000,1.000000
3708695.470783,623.000000,1.000000
3708695.482122,622.000000,1.000000
3708695.482125,637.000000,1.000000
3708695.485905,701.000000,1.000000
3708695.485910,719.000000,1.000000
3708695.494737,719.000000,1.000000
3708695.494743,704.000000,1.000000
3708695.514809,640.000000,1.000000
3708695.514817,623.000000,1.000000
3708695.514824,626.000000,1.000000
3708695.514825,642.000000,1.000000
3708695.517352,704.000000,1.000000
3708695.517357,725.000000,1.000000
3708695.526204,729.000000,1.000000
3708695.526208,720.000000,1.000000
3708695.535059,661.000000,1.000000
3708695.535063,647.000000,1.000000
3708695.541368,650.000000,1.000000
3708695.541373,671.000000,1.000000
3708695.550179,736.000000,1.000000
3708695.550184,756.000000,1.000000
3708695.557759,759.000000,1.000000
3708695.557767,746.000000,1.000000
3708695.566592,681.000000,1.000000
3708695.566596,665.000000,1.000000
3708695.574115,666.000000,1.000000
3708695.574121,678.000000,1.000000
3708695.582929,741.000000,1.000000
3708695.582935,758.000000,1.000000
3708695.591809,756.000000,1.000000
3708695.591821,738.000000,1.000000
3708695.600642,672.000000,1.000000
3708695.600645,654.000000,1.000000
3708695.623452,654.000000,1.000000
3708695.623457,667.000000,1.000000
3708695.637326,731.000000,1.000000
3708695.637333,749.000000,1.000000
3708695.660027,748.000000,1.000000
3708695.660032,733.000000,1.000000
3708695.661323,669.000000,1.000000
3708695.661325,651.000000,1.000000
3708695.662592,651.000000,1.000000
3708695.662598,667.000000,1.000000
3708695.665119,730.000000,1.000000
3708695.665124,748.000000,1.000000
3708695.666392,748.000000,1.000000
3708695.666398,733.000000,1.000000
3708695.667665,670.000000,1.000000
3708695.667672,652.000000,1.000000
3708695.670190,651.000000,1.000000
3708695.670193,666.000000,1.000000
3708695.678991,730.000000,1.000000
3708695.678994,748.000000,1.000000
3708695.687834,748.000000,1.000000
3708695.687843,733.000000,1.000000
3708695.695245,669.000000,1.000000
3708695.695250,650.000000,1.000000
3708695.701643,650.000000,1.000000
3708695.701646,667.000000,1.000000
3708695.711710,731.000000,1.000000
3708695.711713,749.000000,1.000000
3708695.718050,748.000000,1.000000
3708695.718055,733.000000,1.000000
3708695.728153,669.000000,1.000000
3708695.728157,652.000000,1.000000
3708695.734459,652.000000,1.000000
3708695.734464,666.000000,1.000000
3708695.743283,730.000000,1.000000
3708695.743286,748.000000,1.000000
3708695.749587,749.000000,1.000000
3708695.749593,734.000000,1.000000
3708695.758411,670.000000,1.000000
3708695.758415,652.000000,1.000000
3708695.778328,652.000000,1.000000
3708695.778332,667.000000,1.000000
3708695.778338,730.000000,1.000000
3708695.778344,747.000000,1.000000
3708695.784655,748.000000,1.000000
3708695.784660,733.000000,1.000000
3708695.789760,669.000000,1.000000
3708695.789764,653.000000,1.000000
3708695.798582,652.000000,1.000000
3708695.798588,667.000000,1.000000
3708695.812434,731.000000,1.000000
3708695.812438,748.000000,1.000000
3708695.817521,748.000000,1.000000
3708695.817528,733.000000,1.000000
3708695.825108,670.000000,1.000000
3708695.825119,653.000000,1.000000
3708695.831401,653.000000,1.000000
3708695.831403,667.000000,1.000000
3708695.837704,730.000000,1.000000
3708695.837709,748.000000,1.000000
3708695.846556,748.000000,1.000000
3708695.846562,732.000000,1.000000
3708695.855412,670.000000,1.000000
3708695.855417,651.000000,1.000000
3708695.864253,651.000000,1.000000
3708695.864256,667.000000,1.000000
3708695.870558,731.000000,1.000000
3708695.870564,748.000000,1.000000
3708695.879398,747.000000,1.000000
3708695.879404,733.000000,1.000000
3708695.886988,670.000000,1.000000
3708695.886995,653.000000,1.000000
3708695.899582,652.000000,1.000000
3708695.899587,667.000000,1.000000
3708695.903373,731.000000,1.000000
3708695.903376,748.000000,1.000000
3708695.922263,749.000000,1.000000
3708695.922268,733.000000,1.000000
3708695.936096,670.000000,1.000000
3708695.936103,652.000000,1.000000
3708695.942474,651.000000,1.000000
3708695.942481,667.000000,1.000000
3708695.943753,730.000000,1.000000
3708695.943759,749.000000,1.000000
3708695.945027,749.000000,1.000000
3708695.945031,733.000000,1.000000
3708695.951352,669.000000,1.000000
3708695.951356,653.000000,1.000000
3708695.958924,651.000000,1.000000
3708695.958927,667.000000,1.000000
3708695.967737,730.000000,1.000000
3708695.967743,748.000000,1.000000
3708695.974199,747.000000,1.000000
3708695.974206,731.000000,1.000000
3708695.983045,669.000000,1.000000
3708695.983049,652.000000,1.000000
3708695.991902,652.000000,1.000000
3708695.991905,667.000000,1.000000
3708695.998191,731.000000,1.000000
3708695.998197,749.000000,1.000000
3708696.005775,749.000000,1.000000
3708696.005780,735.000000,1.000000
3708696.014578,671.000000,1.000000
3708696.014582,653.000000,1.000000
3708696.023391,652.000000,1.000000
3708696.023398,667.000000,1.000000
3708696.029692,730.000000,1.000000
3708696.029695,747.000000,1.000000
3708696.038517,748.000000,1.000000
3708696.038523,733.000000,1.000000
3708696.058529,670.000000,1.000000
3708696.058533,652.000000,1.000000
3708696.058541,652.000000,1.000000
3708696.058543,667.000000,1.000000
3708696.063577,731.000000,1.000000
3708696.063580,748.000000,1.000000
3708696.069906,748.000000,1.000000
3708696.069918,733.000000,1.000000
3708696.078768,670.000000,1.000000
3708696.078772,652.000000,1.000000
3708696.097696,651.000000,1.000000
3708696.097699,666.000000,1.000000
3708696.097707,730.000000,1.000000
3708696.097708,748.000000,1.000000
3708696.104050,749.000000,1.000000
3708696.104055,734.000000,1.000000
3708696.110371,671.000000,1.000000
3708696.110374,655.000000,1.000000
3708696.119188,654.000000,1.000000
3708696.119196,670.000000,1.000000
3708696.126743,733.000000,1.000000
3708696.126746,751.000000,1.000000
3708696.133062,752.000000,1.000000
3708696.133067,737.000000,1.000000
3708696.141914,674.000000,1.000000
3708696.141918,657.000000,1.000000
3708696.153235,659.000000,1.000000
3708696.153241,673.000000,1.000000
3708696.159554,738.000000,1.000000
3708696.159556,756.000000,1.000000
3708696.165973,754.000000,1.000000
3708696.165978,740.000000,1.000000
3708696.178559,677.000000,1.000000
3708696.178563,661.000000,1.000000
3708696.182350,658.000000,1.000000
3708696.182353,674.000000,1.000000
3708696.201282,738.000000,1.000000
3708696.201287,755.000000,1.000000
3708696.201293,755.000000,1.000000
3708696.201294,739.000000,1.000000
3708696.222692,677.000000,1.000000
3708696.222697,660.000000,1.000000
3708696.236551,660.000000,1.000000
3708696.236598,673.000000,1.000000
3708696.237868,738.000000,1.000000
3708696.237871,755.000000,1.000000
3708696.240424,754.000000,1.000000
3708696.240427,739.000000,1.000000
3708696.242951,675.000000,1.000000
3708696.242954,657.000000,1.000000
3708696.247991,658.000000,1.000000
3708696.247998,673.000000,1.000000
3708696.254299,736.000000,1.000000
3708696.254305,754.000000,1.000000
3708696.261876,754.000000,1.000000
3708696.261881,738.000000,1.000000
3708696.270744,676.000000,1.000000
3708696.270748,658.000000,1.000000
3708696.277058,657.000000,1.000000
3708696.277061,673.000000,1.000000
3708696.287120,738.000000,1.000000
3708696.287126,755.000000,1.000000
3708696.294682,754.000000,1.000000
3708696.294689,739.000000,1.000000
3708696.304557,675.000000,1.000000
3708696.304562,658.000000,1.000000
3708696.309600,658.000000,1.000000
3708696.309602,672.000000,1.000000
3708696.319677,735.000000,1.000000
3708696.319680,753.000000,1.000000
3708696.337325,754.000000,1.000000
3708696.337329,738.000000,1.000000
3708696.337336,675.000000,1.000000
3708696.337337,657.000000,1.000000
3708696.343633,657.000000,1.000000
3708696.343636,672.000000,1.000000
3708696.349755,735.000000,1.000000
3708696.349758,753.000000,1.000000
3708696.358604,752.000000,1.000000
3708696.358610,737.000000,1.000000
3708696.367439,674.000000,1.000000
3708696.367442,655.000000,1.000000
3708696.372476,656.000000,1.000000
3708696.372478,670.000000,1.000000
3708696.382495,734.000000,1.000000
3708696.382498,753.000000,1.000000
3708696.391330,752.000000,1.000000
3708696.391335,737.000000,1.000000
3708696.397639,673.000000,1.000000
3708696.397647,656.000000,1.000000
3708696.406520,656.000000,1.000000
3708696.406523,671.000000,1.000000
3708696.415335,735.000000,1.000000
3708696.415340,752.000000,1.000000
3708696.424167,751.000000,1.000000
3708696.424172,736.000000,1.000000
3708696.430466,673.000000,1.000000
3708696.430469,656.000000,1.000000
3708696.439288,656.000000,1.000000
3708696.439294,671.000000,1.000000
3708696.448102,734.000000,1.000000
3708696.448106,752.000000,1.000000
3708696.453163,752.000000,1.000000
3708696.453169,737.000000,1.000000
3708696.461992,673.000000,1.000000
3708696.461995,655.000000,1.000000
3708696.480867,654.000000,1.000000
3708696.480871,670.000000,1.000000
3708696.480878,733.000000,1.000000
3708696.480885,752.000000,1.000000
3708696.488518,752.000000,1.000000
3708696.488541,736.000000,1.000000
3708696.497214,673.000000,1.000000
3708696.497220,656.000000,1.000000
3708696.523713,655.000000,1.000000
3708696.523727,670.000000,1.000000
3708696.537382,733.000000,1.000000
3708696.537386,751.000000,1.000000
3708696.538654,751.000000,1.000000
3708696.538657,736.000000,1.000000
3708696.538663,673.000000,1.000000
3708696.538664,655.000000,1.000000
3708696.538670,655.000000,1.000000
3708696.538671,670.000000,1.000000
3708696.543708,734.000000,1.000000
3708696.543711,751.000000,1.000000
3708696.550019,752.000000,1.000000
3708696.550028,737.000000,1.000000
3708696.558856,673.000000,1.000000
3708696.558860,656.000000,1.000000
3708696.567690,655.000000,1.000000
3708696.567697,670.000000,1.000000
3708696.573994,734.000000,1.000000
3708696.573997,751.000000,1.000000
3708696.584100,752.000000,1.000000
3708696.584105,736.000000,1.000000
3708696.590410,672.000000,1.000000
3708696.590414,656.000000,1.000000
3708696.599217,656.000000,1.000000
3708696.599220,671.000000,1.000000
3708696.605511,735.000000,1.000000
3708696.605514,752.000000,1.000000
3708696.621873,752.000000,1.000000
3708696.621879,737.000000,1.000000
3708696.623148,673.000000,1.000000
3708696.623152,656.000000,1.000000
3708696.629273,656.000000,1.000000
3708696.629279,671.000000,1.000000
3708696.638085,733.000000,1.000000
3708696.638091,751.000000,1.000000
3708696.656828,751.000000,1.000000
3708696.656832,737.000000,1.000000
3708696.656838,673.000000,1.000000
3708696.656840,656.000000,1.000000
3708696.663128,656.000000,1.000000
3708696.663131,670.000000,1.000000
3708696.670673,734.000000,1.000000
3708696.670676,751.000000,1.000000
3708696.679290,752.000000,1.000000
3708696.679295,736.000000,1.000000
3708696.688201,672.000000,1.000000
3708696.688205,655.000000,1.000000
3708696.694500,655.000000,1.000000
3708696.694502,670.000000,1.000000
3708696.703317,734.000000,1.000000
3708696.703323,752.000000,1.000000
3708696.710902,752.000000,1.000000
3708696.710907,736.000000,1.000000
3708696.717204,675.000000,1.000000
3708696.717209,657.000000,1.000000
3708696.726024,657.000000,1.000000
3708696.726030,672.000000,1.000000
3708696.734829,735.000000,1.000000
3708696.734835,752.000000,1.000000
3708696.744484,752.000000,1.000000
3708696.744504,736.000000,1.000000
3708696.750835,672.000000,1.000000
3708696.750842,656.000000,1.000000
3708696.759646,656.000000,1.000000
3708696.759649,670.000000,1.000000
3708696.773500,734.000000,1.000000
3708696.773508,752.000000,1.000000
3708696.774789,752.000000,1.000000
3708696.774793,737.000000,1.000000
3708696.782397,673.000000,1.000000
3708696.782402,655.000000,1.000000
3708696.801313,656.000000,1.000000
3708696.801319,671.000000,1.000000
3708696.801325,734.000000,1.000000
3708696.801331,751.000000,1.000000
3708696.822751,751.000000,1.000000
3708696.822757,734.000000,1.000000
3708696.836675,672.000000,1.000000
3708696.836680,654.000000,1.000000
3708696.837944,653.000000,1.000000
3708696.837947,667.000000,1.000000
3708696.840474,729.000000,1.000000
3708696.840477,744.000000,1.000000
3708696.843007,742.000000,1.000000
3708696.843010,725.000000,1.000000
3708696.845565,660.000000,1.000000
3708696.845569,641.000000,1.000000
3708696.854384,640.000000,1.000000
3708696.854390,653.000000,1.000000
3708696.863198,716.000000,1.000000
3708696.863201,733.000000,1.000000
3708696.869501,732.000000,1.000000
3708696.869506,715.000000,1.000000
3708696.879527,650.000000,1.000000
3708696.879531,631.000000,1.000000
3708696.898402,628.000000,1.000000
3708696.898408,642.000000,1.000000
3708696.898414,704.000000,1.000000
3708696.898415,720.000000,1.000000
3708696.903466,718.000000,1.000000
3708696.903471,702.000000,1.000000
3708696.909784,636.000000,1.000000
3708696.909789,616.000000,1.000000
3708696.941233,615.000000,1.000000
3708696.941238,630.000000,1.000000
3708696.943764,693.000000,1.000000
3708696.943768,711.000000,1.000000
3708696.945034,711.000000,1.000000
3708696.945036,696.000000,1.000000
3708696.946306,632.000000,1.000000
3708696.946311,615.000000,1.000000
3708696.951343,616.000000,1.000000
3708696.951348,631.000000,1.000000
3708696.957646,694.000000,1.000000
3708696.957652,711.000000,1.000000
3708696.966486,712.000000,1.000000
3708696.966491,696.000000,1.000000
3708696.975325,633.000000,1.000000
3708696.975328,617.000000,1.000000
3708696.984143,616.000000,1.000000
3708696.984149,632.000000,1.000000
3708696.990446,696.000000,1.000000
3708696.990452,713.000000,1.000000
3708696.999273,712.000000,1.000000
3708696.999279,697.000000,1.000000
3708697.009385,634.000000,1.000000
3708697.009389,617.000000,1.000000
3708697.013170,616.000000,1.000000
3708697.013174,632.000000,1.000000
3708697.023190,695.000000,1.000000
3708697.023192,712.000000,1.000000
3708697.042156,712.000000,1.000000
3708697.042163,697.000000,1.000000
3708697.042168,633.000000,1.000000
3708697.042169,616.000000,1.000000
3708697.047210,615.000000,1.000000
3708697.047216,631.000000,1.000000
3708697.056020,693.000000,1.000000
3708697.056024,710.000000,1.000000
3708697.062336,711.000000,1.000000
3708697.062344,695.000000,1.000000
3708697.071211,632.000000,1.000000
3708697.071215,615.000000,1.000000
3708697.090070,615.000000,1.000000
3708697.090076,630.000000,1.000000
3708697.090083,693.000000,1.000000
3708697.090085,711.000000,1.000000
3708697.092611,711.000000,1.000000
3708697.092616,696.000000,1.000000
3708697.122879,633.000000,1.000000
3708697.122885,616.000000,1.000000
3708697.136758,615.000000,1.000000
3708697.136764,630.000000,1.000000
3708697.138036,693.000000,1.000000
3708697.138053,711.000000,1.000000
3708697.139320,712.000000,1.000000
3708697.139326,696.000000,1.000000
3708697.141851,633.000000,1.000000
3708697.141857,615.000000,1.000000
3708697.144377,615.000000,1.000000
3708697.144380,631.000000,1.000000
3708697.151935,694.000000,1.000000
3708697.151940,711.000000,1.000000
3708697.159559,712.000000,1.000000
3708697.159564,696.000000,1.000000
3708697.165908,632.000000,1.000000
3708697.165912,615.000000,1.000000
3708697.184789,614.000000,1.000000
3708697.184795,629.000000,1.000000
3708697.184801,693.000000,1.000000
3708697.184802,710.000000,1.000000
3708697.189854,710.000000,1.000000
3708697.189860,696.000000,1.000000
3708697.196156,631.000000,1.000000
3708697.196160,613.000000,1.000000
3708697.206127,614.000000,1.000000
3708697.206133,628.000000,1.000000
3708697.214943,692.000000,1.000000
3708697.214948,710.000000,1.000000
3708697.221276,710.000000,1.000000
3708697.221282,695.000000,1.000000
3708697.230192,631.000000,1.000000
3708697.230196,613.000000,1.000000
3708697.239159,613.000000,1.000000
3708697.239162,628.000000,1.000000
3708697.247971,691.000000,1.000000
3708697.247974,709.000000,1.000000
3708697.254278,709.000000,1.000000
3708697.254282,693.000000,1.000000
3708697.263105,630.000000,1.000000
3708697.263109,612.000000,1.000000
3708697.271959,612.000000,1.000000
3708697.271966,627.000000,1.000000
3708697.278268,691.000000,1.000000
3708697.278270,708.000000,1.000000
3708697.287100,709.000000,1.000000
3708697.287106,693.000000,1.000000
3708697.294692,630.000000,1.000000
3708697.294696,613.000000,1.000000
3708697.303513,612.000000,1.000000
3708697.303518,626.000000,1.000000
3708697.309816,691.000000,1.000000
3708697.309819,708.000000,1.000000
3708697.318669,707.000000,1.000000
3708697.318674,693.000000,1.000000
3708697.337563,629.000000,1.000000
3708697.337570,612.000000,1.000000
3708697.337577,611.000000,1.000000
3708697.337578,626.000000,1.000000
3708697.343872,690.000000,1.000000
3708697.343875,708.000000,1.000000
3708697.350184,708.000000,1.000000
3708697.350190,692.000000,1.000000
3708697.361542,629.000000,1.000000
3708697.361547,612.000000,1.000000
3708697.367842,612.000000,1.000000
3708697.367848,627.000000,1.000000
3708697.374136,689.000000,1.000000
3708697.374141,707.000000,1.000000
3708697.381693,707.000000,1.000000
3708697.381698,691.000000,1.000000
3708697.391774,628.000000,1.000000
3708697.391779,612.000000,1.000000
3708697.398084,612.000000,1.000000
3708697.398089,627.000000,1.000000
3708697.423260,691.000000,1.000000
3708697.423264,708.000000,1.000000
3708697.437118,708.000000,1.000000
3708697.437124,694.000000,1.000000
3708697.438399,631.000000,1.000000
3708697.438405,613.000000,1.000000
3708697.439681,613.000000,1.000000
3708697.439687,628.000000,1.000000
3708697.442211,691.000000,1.000000
3708697.442216,708.000000,1.000000
3708697.447271,708.000000,1.000000
3708697.447276,693.000000,1.000000
3708697.466183,629.000000,1.000000
3708697.466188,611.000000,1.000000
3708697.466195,611.000000,1.000000
3708697.466197,628.000000,1.000000
3708697.471239,691.000000,1.000000
3708697.471245,708.000000,1.000000
3708697.490239,708.000000,1.000000
3708697.490245,693.000000,1.000000
3708697.490251,630.000000,1.000000
3708697.490252,612.000000,1.000000
3708697.494032,612.000000,1.000000
3708697.494035,627.000000,1.000000
3708697.502844,691.000000,1.000000
3708697.502848,709.000000,1.000000
3708697.510419,709.000000,1.000000
3708697.510426,694.000000,1.000000
3708697.516723,631.000000,1.000000
3708697.516727,614.000000,1.000000
3708697.525573,613.000000,1.000000
3708697.525577,629.000000,1.000000
3708697.536893,692.000000,1.000000
3708697.536899,708.000000,1.000000
3708697.543209,708.000000,1.000000
3708697.543220,693.000000,1.000000
3708697.550508,629.000000,1.000000
3708697.550512,612.000000,1.000000
3708697.559357,610.000000,1.000000
3708697.559360,624.000000,1.000000
3708697.568175,688.000000,1.000000
3708697.568179,705.000000,1.000000
3708697.573244,706.000000,1.000000
3708697.573249,690.000000,1.000000
3708697.582109,626.000000,0.000000
3708697.582114,609.000000,0.000000
3708697.600989,606.000000,0.000000
3708697.600996,620.000000,0.000000
3708697.601003,684.000000,0.000000
3708697.601004,699.000000,0.000000
3708697.607323,698.000000,0.000000
3708697.607329,683.000000,0.000000
3708697.616156,620.000000,0.000000
3708697.616159,601.000000,0.000000
3708697.622215,600.000000,0.000000
3708697.622221,615.000000,0.000000
3708697.634705,677.000000,0.000000
3708697.634729,694.000000,0.000000
3708697.639788,694.000000,0.000000
3708697.639804,680.000000,0.000000
3708697.644842,616.000000,1.000000
3708697.644845,599.000000,1.000000
3708697.654912,599.000000,1.000000
3708697.654917,614.000000,1.000000
3708697.661220,679.000000,1.000000
3708697.661222,695.000000,1.000000
3708697.670041,695.000000,1.000000
3708697.670057,680.000000,1.000000
3708697.678887,616.000000,1.000000
3708697.678891,598.000000,1.000000
3708697.687612,598.000000,1.000000
3708697.687618,614.000000,1.000000
3708697.693914,676.000000,1.000000
3708697.693917,693.000000,1.000000
3708697.722865,693.000000,1.000000
3708697.722871,679.000000,1.000000
3708697.735476,615.000000,1.000000
3708697.735480,598.000000,1.000000
3708697.736747,597.000000,1.000000
3708697.736750,613.000000,1.000000
3708697.738012,677.000000,1.000000
3708697.738018,694.000000,1.000000
3708697.741737,694.000000,1.000000
3708697.741749,679.000000,1.000000
3708697.744321,617.000000,1.000000
3708697.744324,599.000000,1.000000
3708697.760696,599.000000,1.000000
3708697.760699,614.000000,1.000000
3708697.760705,677.000000,1.000000
3708697.760706,694.000000,1.000000
3708697.767007,694.000000,1.000000
3708697.767014,680.000000,1.000000
3708697.775845,617.000000,1.000000
3708697.775850,600.000000,1.000000
3708697.794696,600.000000,1.000000
3708697.794700,614.000000,1.000000
3708697.794706,678.000000,1.000000
3708697.794708,694.000000,1.000000
3708697.798534,694.000000,1.000000
3708697.798538,681.000000,1.000000
3708697.809874,617.000000,1.000000
3708697.809882,600.000000,1.000000
3708697.813665,599.000000,1.000000
3708697.813667,613.000000,1.000000
3708697.822482,677.000000,1.000000
3708697.822486,694.000000,1.000000
3708697.831315,695.000000,1.000000
3708697.831319,680.000000,1.000000
3708697.837621,617.000000,1.000000
3708697.837625,599.000000,1.000000
3708697.846444,598.000000,1.000000
3708697.846449,613.000000,1.000000
3708697.855253,677.000000,1.000000
3708697.855259,694.000000,1.000000
3708697.865290,694.000000,1.000000
3708697.865295,679.000000,1.000000
3708697.870363,615.000000,1.000000
3708697.870368,598.000000,1.000000
3708697.881689,598.000000,1.000000
3708697.881693,613.000000,1.000000
3708697.887990,677.000000,1.000000
3708697.887993,695.000000,1.000000
3708697.894297,695.000000,1.000000
3708697.894304,680.000000,1.000000
3708697.906895,616.000000,1.000000
3708697.906900,600.000000,1.000000
3708697.909419,599.000000,1.000000
3708697.909421,614.000000,1.000000
3708697.916961,677.000000,1.000000
3708697.916967,695.000000,1.000000
3708697.925781,695.000000,1.000000
3708697.925787,680.000000,1.000000
3708697.934594,617.000000,1.000000
3708697.934598,599.000000,1.000000
3708697.942185,599.000000,1.000000
3708697.942188,614.000000,1.000000
3708697.950994,678.000000,1.000000
3708697.950997,695.000000,1.000000
3708697.961090,695.000000,1.000000
3708697.961107,679.000000,1.000000
3708697.967476,616.000000,1.000000
3708697.967480,598.000000,1.000000
3708697.973782,598.000000,1.000000
3708697.973788,613.000000,1.000000
3708697.982596,677.000000,1.000000
3708697.982602,694.000000,1.000000
3708697.991420,695.000000,1.000000
3708697.991428,679.000000,1.000000
3708698.000287,615.000000,1.000000
3708698.000291,600.000000,1.000000
3708698.022881,599.000000,1.000000
3708698.022886,612.000000,1.000000
3708698.035491,676.000000,1.000000
3708698.035498,694.000000,1.000000
3708698.036765,694.000000,1.000000
3708698.036772,680.000000,1.000000
3708698.039290,616.000000,1.000000
3708698.039292,598.000000,1.000000
3708698.043137,598.000000,1.000000
3708698.043140,613.000000,1.000000
3708698.045664,676.000000,1.000000
3708698.045666,694.000000,1.000000
3708698.058389,694.000000,1.000000
3708698.058394,679.000000,1.000000
3708698.063571,615.000000,1.000000
3708698.063575,597.000000,1.000000
3708698.070952,597.000000,1.000000
3708698.070957,614.000000,1.000000
3708698.079788,676.000000,1.000000
3708698.079791,694.000000,1.000000
3708698.087417,695.000000,1.000000
3708698.087425,680.000000,1.000000
3708698.093749,615.000000,1.000000
3708698.093755,597.000000,1.000000
3708698.102651,596.000000,1.000000
3708698.102655,612.000000,1.000000
3708698.111467,676.000000,1.000000
3708698.111471,692.000000,1.000000
3708698.122820,693.000000,1.000000
3708698.122825,678.000000,1.000000
3708698.126650,614.000000,1.000000
3708698.126654,597.000000,1.000000
3708698.135462,597.000000,1.000000
3708698.135468,613.000000,1.000000
3708698.144267,677.000000,1.000000
3708698.144270,694.000000,1.000000
3708698.149389,695.000000,1.000000
3708698.149394,679.000000,1.000000
3708698.158224,614.000000,1.000000
3708698.158227,595.000000,1.000000
3708698.179605,595.000000,1.000000
3708698.179609,608.000000,1.000000
3708698.179616,669.000000,1.000000
3708698.179622,684.000000,1.000000
3708698.180893,682.000000,1.000000
3708698.180898,665.000000,1.000000
3708698.194538,601.000000,1.000000
3708698.194542,583.000000,1.000000
3708698.198326,584.000000,1.000000
3708698.198332,599.000000,1.000000
3708698.223560,662.000000,1.000000
3708698.223653,679.000000,1.000000
3708698.224937,679.000000,1.000000
3708698.224943,664.000000,1.000000
3708698.226207,601.000000,1.000000
3708698.226209,584.000000,1.000000
3708698.233778,584.000000,1.000000
3708698.233792,599.000000,1.000000
3708698.238961,663.000000,1.000000
3708698.238964,680.000000,1.000000
3708698.249071,681.000000,1.000000
3708698.249084,666.000000,1.000000
3708698.254146,602.000000,1.000000
3708698.254150,585.000000,1.000000
3708698.262933,585.000000,1.000000
3708698.262946,599.000000,1.000000
3708698.271763,662.000000,1.000000
3708698.271767,680.000000,1.000000
3708698.280597,681.000000,1.000000
3708698.280618,666.000000,1.000000
3708698.285658,603.000000,1.000000
3708698.285688,586.000000,1.000000
3708698.298412,585.000000,1.000000
3708698.298418,600.000000,1.000000
3708698.337405,663.000000,1.000000
3708698.337410,681.000000,1.000000
3708698.338680,680.000000,1.000000
3708698.338684,665.000000,1.000000
3708698.339954,601.000000,1.000000
3708698.339957,585.000000,1.000000
3708698.341228,585.000000,1.000000
3708698.341232,599.000000,1.000000
3708698.346282,662.000000,1.000000
3708698.346285,681.000000,1.000000
3708698.348810,681.000000,1.000000
3708698.348813,665.000000,1.000000
3708698.350089,601.000000,1.000000
3708698.350092,584.000000,1.000000
3708698.357647,584.000000,1.000000
3708698.357650,598.000000,1.000000
3708698.367708,662.000000,1.000000
3708698.367714,680.000000,1.000000
3708698.375259,680.000000,1.000000
3708698.375264,665.000000,1.000000
3708698.384077,602.000000,1.000000
3708698.384080,584.000000,1.000000
3708698.399177,584.000000,1.000000
3708698.399183,599.000000,1.000000
3708698.399189,662.000000,1.000000
3708698.399190,679.000000,1.000000
3708698.408052,679.000000,1.000000
3708698.408062,665.000000,1.000000
3708698.413128,602.000000,1.000000
3708698.413133,584.000000,1.000000
3708698.421947,584.000000,1.000000
3708698.421953,598.000000,1.000000
3708698.430757,661.000000,1.000000
3708698.430760,678.000000,1.000000
3708698.439605,679.000000,1.000000
3708698.439611,665.000000,1.000000
3708698.444659,600.000000,1.000000
3708698.444663,582.000000,1.000000
3708698.458373,582.000000,1.000000
3708698.458378,597.000000,1.000000
3708698.464679,660.000000,1.000000
3708698.464682,678.000000,1.000000
3708698.470995,679.000000,1.000000
3708698.471000,664.000000,1.000000
3708698.478590,600.000000,1.000000
3708698.478607,582.000000,1.000000
3708698.497490,584.000000,1.000000
3708698.497494,598.000000,1.000000
3708698.497501,661.000000,1.000000
3708698.497502,678.000000,1.000000
3708698.503848,679.000000,1.000000
3708698.503853,663.000000,1.000000
3708698.510151,600.000000,1.000000
3708698.510155,583.000000,1.000000
3708698.517729,583.000000,1.000000
3708698.517734,597.000000,1.000000
3708698.526537,661.000000,1.000000
3708698.526540,679.000000,1.000000
3708698.532847,679.000000,1.000000
3708698.532855,664.000000,1.000000
3708698.542942,600.000000,1.000000
3708698.542947,583.000000,1.000000
3708698.551786,583.000000,1.000000
3708698.551791,598.000000,1.000000
3708698.558092,662.000000,1.000000
3708698.558095,679.000000,1.000000
3708698.566909,679.000000,1.000000
3708698.566914,665.000000,1.000000
3708698.575750,602.000000,1.000000
3708698.575754,584.000000,1.000000
3708698.584579,584.000000,1.000000
3708698.584585,598.000000,1.000000
3708698.590872,662.000000,1.000000
3708698.590875,680.000000,1.000000
3708698.599690,680.000000,1.000000
3708698.599695,664.000000,1.000000
3708698.623619,600.000000,1.000000
3708698.623627,582.000000,1.000000
3708698.623633,582.000000,1.000000
3708698.623635,597.000000,1.000000
3708698.636293,661.000000,1.000000
3708698.636301,679.000000,1.000000
3708698.637569,681.000000,1.000000
3708698.637574,665.000000,1.000000
3708698.638847,601.000000,1.000000
3708698.638851,584.000000,1.000000
3708698.646453,584.000000,1.000000
3708698.646456,599.000000,1.000000
3708698.655270,662.000000,1.000000
3708698.655275,679.000000,1.000000
3708698.664095,680.000000,1.000000
3708698.664100,665.000000,1.000000
3708698.670434,601.000000,1.000000
3708698.670439,584.000000,1.000000
3708698.679241,585.000000,1.000000
3708698.679245,600.000000,1.000000
3708698.688058,663.000000,1.000000
3708698.688064,680.000000,1.000000
3708698.694364,680.000000,1.000000
3708698.694369,665.000000,1.000000
3708698.704481,601.000000,1.000000
3708698.704485,583.000000,1.000000
3708698.710778,584.000000,1.000000
3708698.710781,600.000000,1.000000
3708698.719582,663.000000,1.000000
3708698.719588,680.000000,1.000000
3708698.725888,681.000000,1.000000
3708698.725892,665.000000,1.000000
3708698.745942,602.000000,1.000000
3708698.745946,585.000000,1.000000
3708698.745953,584.000000,1.000000
3708698.745954,599.000000,1.000000
3708698.752256,662.000000,1.000000
3708698.752261,679.000000,1.000000
3708698.769914,680.000000,1.000000
3708698.769918,665.000000,1.000000
3708698.769924,601.000000,1.000000
3708698.769926,584.000000,1.000000
3708698.773707,583.000000,1.000000
3708698.773710,599.000000,1.000000
3708698.782510,663.000000,1.000000
3708698.782512,680.000000,1.000000
3708698.791339,680.000000,1.000000
3708698.791344,664.000000,1.000000
3708698.797473,601.000000,1.000000
3708698.797477,584.000000,1.000000
3708698.806302,584.000000,1.000000
3708698.806321,599.000000,1.000000
3708698.815141,661.000000,1.000000
3708698.815143,678.000000,1.000000
3708698.823967,679.000000,1.000000
3708698.823975,664.000000,1.000000
3708698.830407,601.000000,1.000000
3708698.830411,584.000000,1.000000
3708698.839236,584.000000,1.000000
3708698.839242,599.000000,1.000000
3708698.848064,662.000000,1.000000
3708698.848070,680.000000,1.000000
3708698.854383,680.000000,1.000000
3708698.854389,666.000000,1.000000
3708698.861947,602.000000,1.000000
3708698.861951,584.000000,1.000000
3708698.880818,584.000000,1.000000
3708698.880821,600.000000,1.000000
3708698.880827,662.000000,1.000000
3708698.880829,680.000000,1.000000
3708698.885880,680.000000,1.000000
3708698.885885,665.000000,1.000000
3708698.893446,601.000000,1.000000
3708698.893451,584.000000,1.000000
3708698.923605,584.000000,1.000000
3708698.923611,599.000000,1.000000
3708698.936198,663.000000,1.000000
3708698.936202,680.000000,1.000000
3708698.937468,680.000000,1.000000
3708698.937472,665.000000,1.000000
3708698.938740,602.000000,1.000000
3708698.938745,584.000000,1.000000
3708698.941268,584.000000,1.000000
3708698.941271,598.000000,1.000000
3708698.943803,662.000000,1.000000
3708698.943806,680.000000,1.000000
3708698.951386,680.000000,1.000000
3708698.951390,665.000000,1.000000
3708698.958952,601.000000,1.000000
3708698.958956,584.000000,1.000000
3708698.965081,584.000000,1.000000
3708698.965087,598.000000,1.000000
3708698.977663,661.000000,1.000000
3708698.977666,680.000000,1.000000
3708698.983975,679.000000,1.000000
3708698.983980,663.000000,1.000000
3708698.990283,601.000000,1.000000
3708698.990291,585.000000,1.000000
3708698.999112,585.000000,1.000000
3708698.999118,599.000000,1.000000
3708699.018008,663.000000,1.000000
3708699.018013,680.000000,1.000000
3708699.018020,679.000000,1.000000
3708699.018021,664.000000,1.000000
3708699.024327,600.000000,1.000000
3708699.024331,583.000000,1.000000
3708699.029368,584.000000,1.000000
3708699.029372,599.000000,1.000000
3708699.038177,662.000000,1.000000
3708699.038182,679.000000,1.000000
3708699.057856,679.000000,1.000000
3708699.057862,665.000000,1.000000
3708699.057868,601.000000,1.000000
3708699.057869,584.000000,1.000000
3708699.062911,583.000000,1.000000
3708699.062914,597.000000,1.000000
3708699.070475,663.000000,1.000000
3708699.070480,679.000000,1.000000
3708699.079328,678.000000,1.000000
3708699.079334,663.000000,1.000000
3708699.086937,600.000000,1.000000
3708699.086947,583.000000,1.000000
3708699.093246,583.000000,1.000000
3708699.093249,599.000000,1.000000
