# participant_id: Vert
# gesture: custom
# trial_number: 3
# stream_name: BioRadio_Configuration
# timestamp: 20260430_100237
# samples: 14460
# duration_sec: 57.830
# nominal_sample_rate: 250.0
# effective_sample_rate: 250.02
#
timestamp,EMG1,GSR2
3708619.583569,815.000000,1.000000
3708619.583575,832.000000,1.000000
3708619.588671,832.000000,1.000000
3708619.588676,817.000000,1.000000
3708619.597478,753.000000,1.000000
3708619.597482,735.000000,1.000000
3708619.606296,736.000000,1.000000
3708619.606302,751.000000,1.000000
3708619.615110,815.000000,1.000000
3708619.615116,832.000000,1.000000
3708619.621487,833.000000,1.000000
3708619.621493,817.000000,1.000000
3708619.629048,753.000000,1.000000
3708619.629051,736.000000,1.000000
3708619.637859,735.000000,1.000000
3708619.637864,749.000000,1.000000
3708619.649192,814.000000,1.000000
3708619.649197,832.000000,1.000000
3708619.651751,831.000000,1.000000
3708619.651755,816.000000,1.000000
3708619.665581,753.000000,1.000000
3708619.665586,734.000000,1.000000
3708619.669387,734.000000,1.000000
3708619.669393,750.000000,1.000000
3708619.678199,817.000000,1.000000
3708619.678202,833.000000,1.000000
3708619.685776,833.000000,1.000000
3708619.685781,818.000000,1.000000
3708619.692087,753.000000,1.000000
3708619.692090,736.000000,1.000000
3708619.721048,735.000000,1.000000
3708619.721085,751.000000,1.000000
3708619.734945,814.000000,1.000000
3708619.734953,831.000000,1.000000
3708619.736220,832.000000,1.000000
3708619.736227,818.000000,1.000000
3708619.737493,754.000000,1.000000
3708619.737500,736.000000,1.000000
3708619.739936,735.000000,1.000000
3708619.739940,749.000000,1.000000
3708619.741207,813.000000,1.000000
3708619.741213,832.000000,1.000000
3708619.748772,831.000000,1.000000
3708619.748778,818.000000,1.000000
3708619.757681,753.000000,1.000000
3708619.757686,735.000000,1.000000
3708619.765366,735.000000,1.000000
3708619.765369,750.000000,1.000000
3708619.775430,814.000000,1.000000
3708619.775433,831.000000,1.000000
3708619.781781,832.000000,1.000000
3708619.781795,817.000000,1.000000
3708619.790676,753.000000,1.000000
3708619.790694,735.000000,1.000000
3708619.809583,735.000000,1.000000
3708619.809587,749.000000,1.000000
3708619.809596,815.000000,1.000000
3708619.809597,832.000000,1.000000
3708619.814641,833.000000,1.000000
3708619.814644,817.000000,1.000000
3708619.820939,754.000000,1.000000
3708619.820943,737.000000,1.000000
3708619.829750,735.000000,1.000000
3708619.829756,750.000000,1.000000
3708619.838571,815.000000,1.000000
3708619.838577,831.000000,1.000000
3708619.844879,832.000000,1.000000
3708619.844885,817.000000,1.000000
3708619.853725,753.000000,1.000000
3708619.853729,737.000000,1.000000
3708619.862541,735.000000,1.000000
3708619.862547,750.000000,1.000000
3708619.868841,814.000000,1.000000
3708619.868847,831.000000,1.000000
3708619.877654,832.000000,1.000000
3708619.877660,816.000000,1.000000
3708619.885241,753.000000,1.000000
3708619.885245,735.000000,1.000000
3708619.896576,736.000000,1.000000
3708619.896583,751.000000,1.000000
3708619.900361,813.000000,1.000000
3708619.900364,831.000000,1.000000
3708619.911600,831.000000,1.000000
3708619.911607,816.000000,1.000000
3708619.920422,751.000000,1.000000
3708619.920426,734.000000,1.000000
3708619.925467,734.000000,1.000000
3708619.925470,750.000000,1.000000
3708619.934280,815.000000,1.000000
3708619.934286,832.000000,1.000000
3708619.951974,831.000000,1.000000
3708619.951981,815.000000,1.000000
3708619.951987,753.000000,1.000000
3708619.951989,737.000000,1.000000
3708619.958284,736.000000,1.000000
3708619.958287,749.000000,1.000000
3708619.964574,811.000000,1.000000
3708619.964577,831.000000,1.000000
3708619.973391,831.000000,1.000000
3708619.973397,816.000000,1.000000
3708619.984725,754.000000,1.000000
3708619.984728,736.000000,1.000000
3708619.988430,734.000000,1.000000
3708619.988435,750.000000,1.000000
3708619.998506,814.000000,1.000000
3708619.998511,830.000000,1.000000
3708620.021058,830.000000,1.000000
3708620.021063,815.000000,1.000000
3708620.034912,751.000000,1.000000
3708620.034923,734.000000,1.000000
3708620.036194,734.000000,1.000000
3708620.036213,750.000000,1.000000
3708620.037482,813.000000,1.000000
3708620.037487,829.000000,1.000000
3708620.040039,830.000000,1.000000
3708620.040042,816.000000,1.000000
3708620.046355,753.000000,1.000000
3708620.046361,735.000000,1.000000
3708620.055167,735.000000,1.000000
3708620.055172,751.000000,1.000000
3708620.061458,814.000000,1.000000
3708620.061461,831.000000,1.000000
3708620.069048,830.000000,1.000000
3708620.069053,815.000000,1.000000
3708620.087717,752.000000,1.000000
3708620.087746,736.000000,1.000000
3708620.087754,736.000000,1.000000
3708620.087755,751.000000,1.000000
3708620.095311,813.000000,1.000000
3708620.095314,831.000000,1.000000
3708620.101660,832.000000,1.000000
3708620.101665,816.000000,1.000000
3708620.110481,753.000000,1.000000
3708620.110485,735.000000,1.000000
3708620.139449,735.000000,1.000000
3708620.139457,752.000000,1.000000
3708620.140724,814.000000,1.000000
3708620.140727,831.000000,1.000000
3708620.141996,832.000000,1.000000
3708620.142000,817.000000,1.000000
3708620.143265,753.000000,1.000000
3708620.143273,736.000000,1.000000
3708620.153349,735.000000,1.000000
3708620.153355,751.000000,1.000000
3708620.157131,815.000000,1.000000
3708620.157134,833.000000,1.000000
3708620.165947,833.000000,1.000000
3708620.165952,817.000000,1.000000
3708620.176019,754.000000,1.000000
3708620.176022,737.000000,1.000000
3708620.182322,737.000000,1.000000
3708620.182328,752.000000,1.000000
3708620.191141,815.000000,1.000000
3708620.191146,832.000000,1.000000
3708620.200051,832.000000,1.000000
3708620.200056,818.000000,1.000000
3708620.205099,755.000000,1.000000
3708620.205103,737.000000,1.000000
3708620.213915,736.000000,1.000000
3708620.213921,751.000000,1.000000
3708620.227834,815.000000,1.000000
3708620.227839,831.000000,1.000000
3708620.230363,833.000000,1.000000
3708620.230366,819.000000,1.000000
3708620.245493,754.000000,1.000000
3708620.245498,737.000000,1.000000
3708620.245504,737.000000,1.000000
3708620.245507,753.000000,1.000000
3708620.264369,818.000000,1.000000
3708620.264373,834.000000,1.000000
3708620.264387,834.000000,1.000000
3708620.264389,817.000000,1.000000
3708620.271879,755.000000,1.000000
3708620.271883,738.000000,1.000000
3708620.278178,737.000000,1.000000
3708620.278181,752.000000,1.000000
3708620.286989,815.000000,1.000000
3708620.286995,832.000000,1.000000
3708620.294560,834.000000,1.000000
3708620.294564,820.000000,1.000000
3708620.320995,754.000000,1.000000
3708620.321003,736.000000,1.000000
3708620.334862,739.000000,1.000000
3708620.334867,753.000000,1.000000
3708620.336138,817.000000,1.000000
3708620.336141,833.000000,1.000000
3708620.337406,834.000000,1.000000
3708620.337409,819.000000,1.000000
3708620.338673,754.000000,1.000000
3708620.338676,737.000000,1.000000
3708620.341215,739.000000,1.000000
3708620.341221,755.000000,1.000000
3708620.348771,817.000000,1.000000
3708620.348776,835.000000,1.000000
3708620.357607,836.000000,1.000000
3708620.357611,822.000000,1.000000
3708620.366436,759.000000,1.000000
3708620.366440,740.000000,1.000000
3708620.380325,740.000000,1.000000
3708620.380331,755.000000,1.000000
3708620.382863,818.000000,1.000000
3708620.382878,835.000000,1.000000
3708620.390443,836.000000,1.000000
3708620.390448,819.000000,1.000000
3708620.409329,756.000000,1.000000
3708620.409333,741.000000,1.000000
3708620.409339,740.000000,1.000000
3708620.409340,754.000000,1.000000
3708620.414394,818.000000,1.000000
3708620.414399,836.000000,1.000000
3708620.420709,835.000000,1.000000
3708620.420713,821.000000,1.000000
3708620.438351,756.000000,1.000000
3708620.438357,739.000000,1.000000
3708620.444650,739.000000,1.000000
3708620.444653,755.000000,1.000000
3708620.444659,818.000000,1.000000
3708620.444662,835.000000,1.000000
3708620.453490,836.000000,1.000000
3708620.453497,821.000000,1.000000
3708620.462327,757.000000,1.000000
3708620.462335,740.000000,1.000000
3708620.469879,740.000000,1.000000
3708620.469882,754.000000,1.000000
3708620.477369,819.000000,1.000000
3708620.477372,836.000000,1.000000
3708620.486226,837.000000,1.000000
3708620.486231,821.000000,1.000000
3708620.498841,758.000000,1.000000
3708620.498844,740.000000,1.000000
3708620.502639,740.000000,1.000000
3708620.502643,755.000000,1.000000
3708620.511458,820.000000,1.000000
3708620.511462,836.000000,1.000000
3708620.529107,838.000000,1.000000
3708620.529113,823.000000,1.000000
3708620.529119,759.000000,1.000000
3708620.529120,743.000000,1.000000
3708620.534159,742.000000,1.000000
3708620.534165,757.000000,1.000000
3708620.540457,820.000000,1.000000
3708620.540463,838.000000,1.000000
3708620.549273,838.000000,1.000000
3708620.549280,823.000000,1.000000
3708620.559147,760.000000,1.000000
3708620.559152,742.000000,1.000000
3708620.565448,741.000000,1.000000
3708620.565454,755.000000,1.000000
3708620.574275,820.000000,1.000000
3708620.574281,839.000000,1.000000
3708620.584385,838.000000,1.000000
3708620.584392,822.000000,1.000000
3708620.588208,760.000000,1.000000
3708620.588211,741.000000,1.000000
3708620.597035,741.000000,1.000000
3708620.597041,757.000000,1.000000
3708620.620761,819.000000,1.000000
3708620.620773,837.000000,1.000000
3708620.635709,839.000000,1.000000
3708620.635713,823.000000,1.000000
3708620.636983,758.000000,1.000000
3708620.636988,741.000000,1.000000
3708620.638253,741.000000,1.000000
3708620.638257,757.000000,1.000000
3708620.639521,820.000000,1.000000
3708620.639524,839.000000,1.000000
3708620.647109,838.000000,1.000000
3708620.647113,823.000000,1.000000
3708620.663734,758.000000,1.000000
3708620.663738,740.000000,1.000000
3708620.665011,742.000000,1.000000
3708620.665015,756.000000,1.000000
3708620.668800,817.000000,1.000000
3708620.668803,837.000000,1.000000
3708620.681540,838.000000,1.000000
3708620.681546,822.000000,1.000000
3708620.685229,759.000000,1.000000
3708620.685233,742.000000,1.000000
3708620.694031,742.000000,1.000000
3708620.694033,756.000000,1.000000
3708620.702838,819.000000,1.000000
3708620.702841,837.000000,1.000000
3708620.707890,837.000000,1.000000
3708620.707897,822.000000,1.000000
3708620.716739,758.000000,1.000000
3708620.716743,743.000000,1.000000
3708620.725558,741.000000,1.000000
3708620.725561,757.000000,1.000000
3708620.734360,821.000000,1.000000
3708620.734363,837.000000,1.000000
3708620.741940,837.000000,1.000000
3708620.741957,822.000000,1.000000
3708620.753331,758.000000,1.000000
3708620.753334,741.000000,1.000000
3708620.758377,741.000000,1.000000
3708620.758379,757.000000,1.000000
3708620.764665,820.000000,1.000000
3708620.764668,837.000000,1.000000
3708620.773495,839.000000,1.000000
3708620.773499,825.000000,1.000000
3708620.792396,760.000000,1.000000
3708620.792400,742.000000,1.000000
3708620.792406,742.000000,1.000000
3708620.792407,758.000000,1.000000
3708620.798700,823.000000,1.000000
3708620.798706,837.000000,1.000000
3708620.806284,838.000000,1.000000
3708620.806289,825.000000,1.000000
3708620.812578,760.000000,1.000000
3708620.812582,742.000000,1.000000
3708620.822520,741.000000,1.000000
3708620.822527,756.000000,1.000000
3708620.828819,821.000000,1.000000
3708620.828822,838.000000,1.000000
3708620.840184,837.000000,1.000000
3708620.840189,822.000000,1.000000
3708620.846492,759.000000,1.000000
3708620.846496,740.000000,1.000000
3708620.855308,741.000000,1.000000
3708620.855314,754.000000,1.000000
3708620.861604,819.000000,1.000000
3708620.861607,837.000000,1.000000
3708620.870435,838.000000,1.000000
3708620.870440,822.000000,1.000000
3708620.877997,759.000000,1.000000
3708620.878001,741.000000,1.000000
3708620.884307,740.000000,1.000000
3708620.884313,756.000000,1.000000
3708620.893114,820.000000,1.000000
3708620.893117,838.000000,1.000000
3708620.920813,837.000000,1.000000
3708620.920819,823.000000,1.000000
3708620.935790,759.000000,1.000000
3708620.935796,743.000000,1.000000
3708620.937063,742.000000,1.000000
3708620.937081,757.000000,1.000000
3708620.937091,821.000000,1.000000
3708620.937092,838.000000,1.000000
3708620.943393,838.000000,1.000000
3708620.943397,823.000000,1.000000
3708620.944671,758.000000,1.000000
3708620.944674,742.000000,1.000000
3708620.950965,741.000000,1.000000
3708620.950972,756.000000,1.000000
3708620.968619,820.000000,1.000000
3708620.968624,837.000000,1.000000
3708620.968630,838.000000,1.000000
3708620.968632,822.000000,1.000000
3708620.973669,756.000000,1.000000
3708620.973673,740.000000,1.000000
3708620.980004,740.000000,1.000000
3708620.980007,756.000000,1.000000
3708620.988831,820.000000,1.000000
3708620.988834,837.000000,1.000000
3708620.999028,837.000000,1.000000
3708620.999033,821.000000,1.000000
3708621.005184,756.000000,1.000000
3708621.005188,740.000000,1.000000
3708621.014003,741.000000,1.000000
3708621.014009,755.000000,1.000000
3708621.022819,819.000000,1.000000
3708621.022825,837.000000,1.000000
3708621.030384,837.000000,1.000000
3708621.030389,823.000000,1.000000
3708621.036707,759.000000,1.000000
3708621.036711,741.000000,1.000000
3708621.045530,741.000000,1.000000
3708621.045537,756.000000,1.000000
3708621.065604,819.000000,1.000000
3708621.065609,835.000000,1.000000
3708621.065615,836.000000,1.000000
3708621.065617,821.000000,1.000000
3708621.068149,757.000000,1.000000
3708621.068152,741.000000,1.000000
3708621.076954,741.000000,1.000000
3708621.076957,756.000000,1.000000
3708621.085763,818.000000,1.000000
3708621.085769,835.000000,1.000000
3708621.097096,837.000000,1.000000
3708621.097101,821.000000,1.000000
3708621.100912,757.000000,1.000000
3708621.100917,740.000000,1.000000
3708621.109720,741.000000,1.000000
3708621.109723,755.000000,1.000000
3708621.118533,818.000000,1.000000
3708621.118536,835.000000,1.000000
3708621.124864,836.000000,1.000000
3708621.124871,821.000000,1.000000
3708621.143766,758.000000,1.000000
3708621.143769,740.000000,1.000000
3708621.143777,739.000000,1.000000
3708621.143778,755.000000,1.000000
3708621.150078,819.000000,1.000000
3708621.150082,836.000000,1.000000
3708621.165282,836.000000,1.000000
3708621.165287,821.000000,1.000000
3708621.165293,758.000000,1.000000
3708621.165295,740.000000,1.000000
3708621.175415,739.000000,1.000000
3708621.175418,753.000000,1.000000
3708621.185490,817.000000,1.000000
3708621.185495,836.000000,1.000000
3708621.189304,837.000000,1.000000
3708621.189308,821.000000,1.000000
3708621.196863,758.000000,1.000000
3708621.196905,740.000000,1.000000
3708621.220814,738.000000,1.000000
3708621.220819,754.000000,1.000000
3708621.234654,819.000000,1.000000
3708621.234659,838.000000,1.000000
3708621.235923,838.000000,1.000000
3708621.235928,822.000000,1.000000
3708621.237193,758.000000,1.000000
3708621.237196,743.000000,1.000000
3708621.238459,743.000000,1.000000
3708621.238462,758.000000,1.000000
3708621.246060,823.000000,1.000000
3708621.246063,839.000000,1.000000
3708621.252389,839.000000,1.000000
3708621.252395,824.000000,1.000000
3708621.263780,761.000000,1.000000
3708621.263785,743.000000,1.000000
3708621.270079,742.000000,1.000000
3708621.270082,758.000000,1.000000
3708621.278886,821.000000,1.000000
3708621.278888,839.000000,1.000000
3708621.285200,839.000000,1.000000
3708621.285205,824.000000,1.000000
3708621.292764,761.000000,1.000000
3708621.292767,742.000000,1.000000
3708621.301586,743.000000,1.000000
3708621.301591,759.000000,1.000000
3708621.310391,822.000000,1.000000
3708621.310394,839.000000,1.000000
3708621.316768,839.000000,1.000000
3708621.316775,825.000000,1.000000
3708621.325592,760.000000,1.000000
3708621.325596,742.000000,1.000000
3708621.334427,742.000000,1.000000
3708621.334433,757.000000,1.000000
3708621.340776,822.000000,1.000000
3708621.340779,839.000000,1.000000
3708621.350893,840.000000,1.000000
3708621.350902,824.000000,1.000000
3708621.368516,761.000000,1.000000
3708621.368519,744.000000,1.000000
3708621.368526,744.000000,1.000000
3708621.368528,759.000000,1.000000
3708621.374826,822.000000,1.000000
3708621.374831,838.000000,1.000000
3708621.381132,839.000000,1.000000
3708621.381137,824.000000,1.000000
3708621.390048,762.000000,1.000000
3708621.390052,744.000000,1.000000
3708621.419013,744.000000,1.000000
3708621.419031,759.000000,1.000000
3708621.421564,822.000000,1.000000
3708621.421567,838.000000,1.000000
3708621.422835,837.000000,1.000000
3708621.422839,822.000000,1.000000
3708621.424112,760.000000,1.000000
3708621.424115,742.000000,1.000000
3708621.434186,743.000000,1.000000
3708621.434192,758.000000,1.000000
3708621.437974,822.000000,1.000000
3708621.437980,839.000000,1.000000
3708621.445562,840.000000,1.000000
3708621.445569,825.000000,1.000000
3708621.454391,762.000000,1.000000
3708621.454394,744.000000,1.000000
3708621.460706,745.000000,1.000000
3708621.460711,761.000000,1.000000
3708621.469513,825.000000,1.000000
3708621.469519,842.000000,1.000000
3708621.488411,843.000000,1.000000
3708621.488416,826.000000,1.000000
3708621.488422,761.000000,1.000000
3708621.488423,744.000000,1.000000
3708621.494713,745.000000,1.000000
3708621.494716,760.000000,1.000000
3708621.522361,823.000000,1.000000
3708621.522366,841.000000,1.000000
3708621.536211,840.000000,1.000000
3708621.536217,825.000000,1.000000
3708621.536223,764.000000,1.000000
3708621.536226,746.000000,1.000000
3708621.537496,744.000000,1.000000
3708621.537501,759.000000,1.000000
3708621.538771,823.000000,1.000000
3708621.538774,842.000000,1.000000
3708621.541306,842.000000,1.000000
3708621.541310,825.000000,1.000000
3708621.550151,760.000000,1.000000
3708621.550156,744.000000,1.000000
3708621.558956,745.000000,1.000000
3708621.558959,760.000000,1.000000
3708621.565247,823.000000,1.000000
3708621.565252,841.000000,1.000000
3708621.574062,840.000000,1.000000
3708621.574067,824.000000,1.000000
3708621.582707,761.000000,1.000000
3708621.582713,743.000000,1.000000
3708621.591555,745.000000,1.000000
3708621.591561,759.000000,1.000000
3708621.596595,822.000000,1.000000
3708621.596601,840.000000,1.000000
3708621.609243,841.000000,1.000000
3708621.609248,824.000000,1.000000
3708621.614292,760.000000,1.000000
3708621.614296,744.000000,1.000000
3708621.620595,745.000000,1.000000
3708621.620599,760.000000,1.000000
3708621.629395,823.000000,1.000000
3708621.629399,839.000000,1.000000
3708621.648296,840.000000,1.000000
3708621.648301,825.000000,1.000000
3708621.648307,762.000000,1.000000
3708621.648308,744.000000,1.000000
3708621.654667,743.000000,1.000000
3708621.654669,759.000000,1.000000
3708621.661986,822.000000,1.000000
3708621.661989,840.000000,1.000000
3708621.670856,840.000000,1.000000
3708621.670861,825.000000,1.000000
3708621.678485,761.000000,1.000000
3708621.678493,745.000000,1.000000
3708621.684827,745.000000,1.000000
3708621.684832,761.000000,1.000000
3708621.693551,825.000000,1.000000
3708621.693554,841.000000,1.000000
3708621.702378,841.000000,1.000000
3708621.702385,826.000000,1.000000
3708621.708709,761.000000,1.000000
3708621.708713,744.000000,1.000000
3708621.717519,743.000000,1.000000
3708621.717522,758.000000,1.000000
3708621.726327,822.000000,1.000000
3708621.726331,839.000000,1.000000
3708621.735149,838.000000,1.000000
3708621.735154,825.000000,1.000000
3708621.741465,760.000000,1.000000
3708621.741469,743.000000,1.000000
3708621.750295,743.000000,1.000000
3708621.750298,757.000000,1.000000
3708621.769186,822.000000,1.000000
3708621.769191,839.000000,1.000000
3708621.769199,839.000000,1.000000
3708621.769200,824.000000,1.000000
3708621.774239,760.000000,1.000000
3708621.774246,742.000000,1.000000
3708621.780565,742.000000,1.000000
3708621.780568,757.000000,1.000000
3708621.789363,821.000000,1.000000
3708621.789367,839.000000,1.000000
3708621.820848,840.000000,1.000000
3708621.820853,824.000000,1.000000
3708621.820860,760.000000,1.000000
3708621.820876,742.000000,1.000000
3708621.834736,741.000000,1.000000
3708621.834741,757.000000,1.000000
3708621.836009,820.000000,1.000000
3708621.836013,837.000000,1.000000
3708621.838360,837.000000,1.000000
3708621.838365,823.000000,1.000000
3708621.839654,760.000000,1.000000
3708621.839662,743.000000,1.000000
3708621.845950,742.000000,1.000000
3708621.845953,755.000000,1.000000
3708621.854750,820.000000,1.000000
3708621.854753,838.000000,1.000000
3708621.861050,838.000000,1.000000
3708621.861055,823.000000,1.000000
3708621.869885,759.000000,1.000000
3708621.869889,740.000000,1.000000
3708621.878682,739.000000,1.000000
3708621.878685,755.000000,1.000000
3708621.884972,820.000000,1.000000
3708621.884975,838.000000,1.000000
3708621.892529,838.000000,1.000000
3708621.892533,823.000000,1.000000
3708621.911416,759.000000,1.000000
3708621.911422,741.000000,1.000000
3708621.911428,742.000000,1.000000
3708621.911429,757.000000,1.000000
3708621.917728,821.000000,1.000000
3708621.917731,838.000000,1.000000
3708621.927987,836.000000,1.000000
3708621.927993,823.000000,1.000000
3708621.934297,760.000000,1.000000
3708621.934307,744.000000,1.000000
3708621.953279,744.000000,1.000000
3708621.953284,758.000000,1.000000
3708621.953292,821.000000,1.000000
3708621.953293,839.000000,1.000000
3708621.958334,839.000000,1.000000
3708621.958337,824.000000,1.000000
3708621.964660,762.000000,1.000000
3708621.964664,744.000000,1.000000
3708621.973538,742.000000,1.000000
3708621.973540,758.000000,1.000000
3708621.982340,821.000000,1.000000
3708621.982343,838.000000,1.000000
3708621.988747,838.000000,1.000000
3708621.988752,823.000000,1.000000
3708621.997584,761.000000,1.000000
3708621.997588,743.000000,1.000000
3708622.006393,742.000000,1.000000
3708622.006398,758.000000,1.000000
3708622.015199,821.000000,1.000000
3708622.015202,837.000000,1.000000
3708622.021519,836.000000,1.000000
3708622.021523,823.000000,1.000000
3708622.030355,760.000000,1.000000
3708622.030361,742.000000,1.000000
3708622.041608,742.000000,1.000000
3708622.041613,756.000000,1.000000
3708622.044134,821.000000,1.000000
3708622.044137,838.000000,1.000000
3708622.052962,838.000000,1.000000
3708622.052969,822.000000,1.000000
3708622.071844,759.000000,1.000000
3708622.071848,742.000000,1.000000
3708622.071854,742.000000,1.000000
3708622.071875,757.000000,1.000000
3708622.079236,820.000000,1.000000
3708622.079241,837.000000,1.000000
3708622.085549,838.000000,1.000000
3708622.085553,824.000000,1.000000
3708622.094365,760.000000,1.000000
3708622.094368,741.000000,1.000000
3708622.122113,741.000000,1.000000
3708622.122118,757.000000,1.000000
3708622.135947,820.000000,1.000000
3708622.135952,837.000000,1.000000
3708622.137216,836.000000,1.000000
3708622.137219,822.000000,1.000000
3708622.137225,759.000000,1.000000
3708622.137242,740.000000,1.000000
3708622.139770,740.000000,1.000000
3708622.139773,756.000000,1.000000
3708622.141038,821.000000,1.000000
3708622.141041,837.000000,1.000000
3708622.148620,837.000000,1.000000
3708622.148625,823.000000,1.000000
3708622.157498,758.000000,1.000000
3708622.157502,742.000000,1.000000
3708622.166308,741.000000,1.000000
3708622.166311,756.000000,1.000000
3708622.175114,820.000000,1.000000
3708622.175117,838.000000,1.000000
3708622.180158,839.000000,1.000000
3708622.180163,824.000000,1.000000
3708622.190259,760.000000,1.000000
3708622.190264,743.000000,1.000000
3708622.209123,745.000000,1.000000
3708622.209129,761.000000,1.000000
3708622.209135,825.000000,1.000000
3708622.209137,841.000000,1.000000
3708622.214181,841.000000,1.000000
3708622.214185,825.000000,1.000000
3708622.220511,764.000000,1.000000
3708622.220514,746.000000,1.000000
3708622.229337,744.000000,1.000000
3708622.229340,759.000000,1.000000
3708622.238148,823.000000,1.000000
3708622.238151,840.000000,1.000000
3708622.244452,839.000000,1.000000
3708622.244459,823.000000,1.000000
3708622.253306,760.000000,1.000000
3708622.253317,744.000000,1.000000
3708622.263198,742.000000,1.000000
3708622.263204,757.000000,1.000000
3708622.269501,822.000000,1.000000
3708622.269506,840.000000,1.000000
3708622.278387,839.000000,1.000000
3708622.278392,825.000000,1.000000
3708622.285955,762.000000,1.000000
3708622.285974,744.000000,1.000000
3708622.292283,743.000000,1.000000
3708622.292285,757.000000,1.000000
3708622.306259,821.000000,1.000000
3708622.306328,839.000000,1.000000
3708622.308957,839.000000,1.000000
3708622.308963,825.000000,1.000000
3708622.317585,761.000000,1.000000
3708622.317589,743.000000,1.000000
3708622.336467,742.000000,1.000000
3708622.336471,759.000000,1.000000
3708622.336478,822.000000,1.000000
3708622.336479,839.000000,1.000000
3708622.342777,840.000000,1.000000
3708622.342782,826.000000,1.000000
3708622.361653,761.000000,1.000000
3708622.361656,743.000000,1.000000
3708622.361663,743.000000,1.000000
3708622.361664,757.000000,1.000000
3708622.364188,820.000000,1.000000
3708622.364194,838.000000,1.000000
3708622.373035,839.000000,1.000000
3708622.373042,823.000000,1.000000
3708622.381869,759.000000,1.000000
3708622.381875,742.000000,1.000000
3708622.388106,741.000000,1.000000
3708622.388108,756.000000,1.000000
3708622.398043,820.000000,1.000000
3708622.398049,838.000000,1.000000
3708622.421993,838.000000,1.000000
3708622.421998,823.000000,1.000000
3708622.434594,758.000000,1.000000
3708622.434598,739.000000,1.000000
3708622.435871,741.000000,1.000000
3708622.435876,757.000000,1.000000
3708622.437149,821.000000,1.000000
3708622.437153,837.000000,1.000000
3708622.439678,836.000000,1.000000
3708622.439682,822.000000,1.000000
3708622.454799,757.000000,1.000000
3708622.454802,741.000000,1.000000
3708622.461093,741.000000,1.000000
3708622.461095,756.000000,1.000000
3708622.461101,819.000000,1.000000
3708622.461103,836.000000,1.000000
3708622.477447,838.000000,1.000000
3708622.477455,822.000000,1.000000
3708622.478811,758.000000,1.000000
3708622.478832,741.000000,1.000000
3708622.486458,740.000000,1.000000
3708622.486461,757.000000,1.000000
3708622.494038,819.000000,1.000000
3708622.494041,837.000000,1.000000
3708622.502895,838.000000,1.000000
3708622.502937,823.000000,1.000000
3708622.521903,757.000000,1.000000
3708622.521910,741.000000,1.000000
3708622.521916,741.000000,1.000000
3708622.521918,756.000000,1.000000
3708622.525700,818.000000,1.000000
3708622.525702,836.000000,1.000000
3708622.534514,836.000000,1.000000
3708622.534539,821.000000,1.000000
3708622.542101,758.000000,1.000000
3708622.542105,738.000000,1.000000
3708622.549689,738.000000,1.000000
3708622.549695,755.000000,1.000000
3708622.561024,818.000000,1.000000
3708622.561027,836.000000,1.000000
3708622.567340,837.000000,1.000000
3708622.567372,822.000000,1.000000
3708622.574934,758.000000,1.000000
3708622.574938,740.000000,1.000000
3708622.581261,739.000000,1.000000
3708622.581266,753.000000,1.000000
3708622.590082,817.000000,1.000000
3708622.590088,837.000000,1.000000
3708622.598930,837.000000,1.000000
3708622.598935,821.000000,1.000000
3708622.605263,757.000000,1.000000
3708622.605266,741.000000,1.000000
3708622.614081,740.000000,1.000000
3708622.614087,755.000000,1.000000
3708622.631724,817.000000,1.000000
3708622.631731,835.000000,1.000000
3708622.631739,836.000000,1.000000
3708622.631740,821.000000,1.000000
3708622.638052,757.000000,1.000000
3708622.638055,739.000000,1.000000
3708622.649381,740.000000,1.000000
3708622.649385,754.000000,1.000000
3708622.651905,818.000000,1.000000
3708622.651912,836.000000,1.000000
3708622.665694,835.000000,1.000000
3708622.665699,820.000000,1.000000
3708622.668312,758.000000,1.000000
3708622.668317,740.000000,1.000000
3708622.698516,740.000000,1.000000
3708622.698522,756.000000,1.000000
3708622.722448,820.000000,1.000000
3708622.722453,838.000000,1.000000
3708622.735056,838.000000,1.000000
3708622.735061,826.000000,1.000000
3708622.736345,764.000000,1.000000
3708622.736348,748.000000,1.000000
3708622.738875,747.000000,1.000000
3708622.738878,762.000000,1.000000
3708622.741409,826.000000,1.000000
3708622.741415,843.000000,1.000000
3708622.742680,844.000000,1.000000
3708622.742683,827.000000,1.000000
3708622.742688,764.000000,1.000000
3708622.742690,746.000000,1.000000
3708622.743953,746.000000,1.000000
3708622.743956,761.000000,1.000000
3708622.751503,825.000000,1.000000
3708622.751508,841.000000,1.000000
3708622.756595,841.000000,1.000000
3708622.756599,827.000000,1.000000
3708622.765412,763.000000,1.000000
3708622.765415,745.000000,1.000000
3708622.785355,744.000000,1.000000
3708622.785363,759.000000,1.000000
3708622.785369,822.000000,1.000000
3708622.785371,840.000000,1.000000
3708622.789154,841.000000,1.000000
3708622.789157,825.000000,1.000000
3708622.798008,762.000000,1.000000
3708622.798012,745.000000,1.000000
3708622.805568,744.000000,1.000000
3708622.805574,758.000000,1.000000
3708622.811865,822.000000,1.000000
3708622.811868,840.000000,1.000000
3708622.823214,840.000000,1.000000
3708622.823220,824.000000,1.000000
3708622.829522,762.000000,1.000000
3708622.829526,745.000000,1.000000
3708622.838332,744.000000,1.000000
3708622.838338,758.000000,1.000000
3708622.844626,822.000000,1.000000
3708622.844629,840.000000,1.000000
3708622.853414,839.000000,1.000000
3708622.853420,825.000000,1.000000
3708622.862244,760.000000,1.000000
3708622.862247,744.000000,1.000000
3708622.871060,743.000000,1.000000
3708622.871065,758.000000,1.000000
3708622.877357,821.000000,1.000000
3708622.877360,839.000000,1.000000
3708622.886220,839.000000,1.000000
3708622.886225,824.000000,1.000000
3708622.895072,760.000000,1.000000
3708622.895075,743.000000,1.000000
3708622.901376,744.000000,1.000000
3708622.901382,758.000000,1.000000
3708622.908925,820.000000,1.000000
3708622.908928,839.000000,1.000000
3708622.927805,839.000000,1.000000
3708622.927810,823.000000,1.000000
3708622.927816,760.000000,1.000000
3708622.927817,743.000000,1.000000
3708622.935374,742.000000,1.000000
3708622.935377,758.000000,1.000000
3708622.941671,821.000000,1.000000
3708622.941674,838.000000,1.000000
3708622.950498,839.000000,1.000000
3708622.950503,824.000000,1.000000
3708622.959325,760.000000,1.000000
3708622.959329,743.000000,1.000000
3708622.965634,743.000000,1.000000
3708622.965639,759.000000,1.000000
3708622.974452,823.000000,1.000000
3708622.974456,840.000000,1.000000
3708622.983368,841.000000,1.000000
3708622.983373,827.000000,1.000000
3708622.993476,764.000000,1.000000
3708622.993479,748.000000,1.000000
3708622.997265,748.000000,1.000000
3708622.997271,763.000000,1.000000
3708623.022471,827.000000,1.000000
3708623.022486,844.000000,1.000000
3708623.035124,845.000000,1.000000
3708623.035130,830.000000,1.000000
3708623.036400,766.000000,1.000000
3708623.036405,748.000000,1.000000
3708623.037668,747.000000,1.000000
3708623.037674,762.000000,1.000000
3708623.040197,825.000000,1.000000
3708623.040202,842.000000,1.000000
3708623.046519,843.000000,1.000000
3708623.046525,828.000000,1.000000
3708623.065420,764.000000,1.000000
3708623.065426,746.000000,1.000000
3708623.065432,745.000000,1.000000
3708623.065437,763.000000,1.000000
3708623.069219,826.000000,1.000000
3708623.069225,843.000000,1.000000
3708623.080611,844.000000,1.000000
3708623.080616,828.000000,1.000000
3708623.086939,765.000000,1.000000
3708623.086943,746.000000,1.000000
3708623.093260,745.000000,1.000000
3708623.093263,761.000000,1.000000
3708623.102093,825.000000,1.000000
3708623.102099,843.000000,1.000000
3708623.109653,842.000000,1.000000
3708623.109658,828.000000,1.000000
3708623.118502,766.000000,1.000000
3708623.118506,746.000000,1.000000
3708623.124804,745.000000,1.000000
3708623.124807,761.000000,1.000000
3708623.142413,825.000000,1.000000
3708623.142422,841.000000,1.000000
3708623.142434,842.000000,1.000000
3708623.142436,828.000000,1.000000
3708623.150010,765.000000,1.000000
3708623.150013,747.000000,1.000000
3708623.155046,747.000000,1.000000
3708623.155048,763.000000,1.000000
3708623.168884,826.000000,1.000000
3708623.168888,842.000000,1.000000
3708623.175196,842.000000,1.000000
3708623.175201,826.000000,1.000000
3708623.181511,765.000000,1.000000
3708623.181515,747.000000,1.000000
3708623.190334,747.000000,1.000000
3708623.190337,761.000000,1.000000
3708623.199151,825.000000,1.000000
3708623.199157,843.000000,1.000000
3708623.206740,842.000000,1.000000
3708623.206745,827.000000,1.000000
3708623.213058,765.000000,1.000000
3708623.213063,747.000000,1.000000
3708623.221864,746.000000,1.000000
3708623.221870,761.000000,1.000000
3708623.228153,824.000000,1.000000
3708623.228156,842.000000,1.000000
3708623.240579,843.000000,1.000000
3708623.240584,828.000000,1.000000
3708623.245626,764.000000,1.000000
3708623.245629,747.000000,1.000000
3708623.254457,747.000000,1.000000
3708623.254463,761.000000,1.000000
3708623.260753,824.000000,1.000000
3708623.260756,841.000000,1.000000
3708623.269570,841.000000,1.000000
3708623.269575,827.000000,1.000000
3708623.278382,763.000000,1.000000
3708623.278385,746.000000,1.000000
3708623.284682,746.000000,1.000000
3708623.284688,761.000000,1.000000
3708623.293484,824.000000,1.000000
3708623.293488,842.000000,1.000000
3708623.326149,841.000000,1.000000
3708623.326154,827.000000,1.000000
3708623.335066,763.000000,1.000000
3708623.335073,746.000000,1.000000
3708623.336345,745.000000,1.000000
3708623.336348,760.000000,1.000000
3708623.337634,823.000000,1.000000
3708623.337637,842.000000,1.000000
3708623.341429,841.000000,1.000000
3708623.341436,828.000000,1.000000
3708623.342702,763.000000,1.000000
3708623.342705,746.000000,1.000000
3708623.360333,746.000000,1.000000
3708623.360335,759.000000,1.000000
3708623.360342,824.000000,1.000000
3708623.360358,842.000000,1.000000
3708623.366658,842.000000,1.000000
3708623.366662,827.000000,1.000000
3708623.372968,763.000000,1.000000
3708623.372972,746.000000,1.000000
3708623.380535,745.000000,1.000000
3708623.380538,760.000000,1.000000
3708623.389345,824.000000,1.000000
3708623.389348,842.000000,1.000000
3708623.398172,842.000000,1.000000
3708623.398177,827.000000,1.000000
3708623.404507,765.000000,1.000000
3708623.404511,748.000000,1.000000
3708623.414356,746.000000,1.000000
3708623.414360,761.000000,1.000000
3708623.423174,827.000000,1.000000
3708623.423177,845.000000,1.000000
3708623.432005,845.000000,1.000000
3708623.432029,832.000000,1.000000
3708623.437220,768.000000,1.000000
3708623.437225,750.000000,1.000000
3708623.446023,749.000000,1.000000
3708623.446028,763.000000,1.000000
3708623.464905,826.000000,1.000000
3708623.464911,844.000000,1.000000
3708623.464917,845.000000,1.000000
3708623.464918,829.000000,1.000000
3708623.468703,766.000000,1.000000
3708623.468708,749.000000,1.000000
3708623.477526,750.000000,1.000000
3708623.477531,764.000000,1.000000
3708623.486235,827.000000,1.000000
3708623.486237,844.000000,1.000000
3708623.497572,844.000000,1.000000
3708623.497579,831.000000,1.000000
3708623.501365,767.000000,1.000000
3708623.501368,749.000000,1.000000
3708623.510190,749.000000,1.000000
3708623.510195,763.000000,1.000000
3708623.519006,828.000000,1.000000
3708623.519009,846.000000,1.000000
3708623.527862,845.000000,1.000000
3708623.527870,829.000000,1.000000
3708623.535431,766.000000,1.000000
3708623.535435,749.000000,1.000000
3708623.541726,748.000000,1.000000
3708623.541729,764.000000,1.000000
3708623.548018,827.000000,1.000000
3708623.548024,844.000000,1.000000
3708623.556841,845.000000,1.000000
3708623.556847,830.000000,1.000000
3708623.566786,767.000000,1.000000
3708623.566789,750.000000,1.000000
3708623.575623,750.000000,1.000000
3708623.575625,764.000000,1.000000
3708623.581923,827.000000,1.000000
3708623.581927,846.000000,1.000000
3708623.589614,845.000000,1.000000
3708623.589622,829.000000,1.000000
3708623.622371,766.000000,1.000000
3708623.622376,749.000000,1.000000
3708623.635034,747.000000,1.000000
3708623.635039,763.000000,1.000000
3708623.636306,827.000000,1.000000
3708623.636312,844.000000,1.000000
3708623.637579,844.000000,1.000000
3708623.637585,829.000000,1.000000
3708623.640111,765.000000,1.000000
3708623.640117,747.000000,1.000000
3708623.642640,748.000000,1.000000
3708623.642642,764.000000,1.000000
3708623.645162,827.000000,1.000000
3708623.645165,844.000000,1.000000
3708623.655271,844.000000,1.000000
3708623.655276,830.000000,1.000000
3708623.661576,766.000000,1.000000
3708623.661579,748.000000,1.000000
3708623.667883,748.000000,1.000000
3708623.667890,763.000000,1.000000
3708623.676692,826.000000,1.000000
3708623.676694,843.000000,1.000000
3708623.686701,846.000000,1.000000
3708623.686707,831.000000,1.000000
3708623.695524,767.000000,1.000000
3708623.695528,749.000000,1.000000
3708623.701823,748.000000,1.000000
3708623.701829,763.000000,1.000000
3708623.710638,826.000000,1.000000
3708623.710641,844.000000,1.000000
3708623.718207,844.000000,1.000000
3708623.718212,829.000000,1.000000
3708623.724520,766.000000,1.000000
3708623.724529,748.000000,1.000000
3708623.735896,748.000000,1.000000
3708623.735899,763.000000,1.000000
3708623.742191,827.000000,1.000000
3708623.742194,843.000000,1.000000
3708623.751024,843.000000,1.000000
3708623.751030,829.000000,1.000000
3708623.757366,765.000000,1.000000
3708623.757392,748.000000,1.000000
3708623.767444,748.000000,1.000000
3708623.767449,763.000000,1.000000
3708623.785108,826.000000,1.000000
3708623.785113,843.000000,1.000000
3708623.785119,844.000000,1.000000
3708623.785120,828.000000,1.000000
3708623.788929,765.000000,1.000000
3708623.788934,747.000000,1.000000
3708623.797749,747.000000,1.000000
3708623.797753,762.000000,1.000000
3708623.806565,826.000000,1.000000
3708623.806572,843.000000,1.000000
3708623.815403,844.000000,1.000000
3708623.815409,829.000000,1.000000
3708623.821710,765.000000,1.000000
3708623.821722,749.000000,1.000000
3708623.830473,747.000000,1.000000
3708623.830480,762.000000,1.000000
3708623.839299,826.000000,1.000000
3708623.839305,844.000000,1.000000
3708623.845435,844.000000,1.000000
3708623.845441,829.000000,1.000000
3708623.853043,765.000000,1.000000
3708623.853047,749.000000,1.000000
3708623.861858,748.000000,1.000000
3708623.861864,764.000000,1.000000
3708623.870669,828.000000,1.000000
3708623.870674,845.000000,1.000000
3708623.876982,844.000000,1.000000
3708623.876987,829.000000,1.000000
3708623.897090,766.000000,1.000000
3708623.897093,749.000000,1.000000
3708623.897101,747.000000,1.000000
3708623.897108,764.000000,1.000000
3708623.922076,827.000000,1.000000
3708623.922081,846.000000,1.000000
3708623.935722,846.000000,1.000000
3708623.935725,830.000000,1.000000
3708623.935732,768.000000,1.000000
3708623.935733,749.000000,1.000000
3708623.937007,749.000000,1.000000
3708623.937010,763.000000,1.000000
3708623.939542,827.000000,1.000000
3708623.939546,844.000000,1.000000
3708623.942073,844.000000,1.000000
3708623.942076,830.000000,1.000000
3708623.949647,767.000000,1.000000
3708623.949652,750.000000,1.000000
3708623.978554,749.000000,1.000000
3708623.978615,763.000000,1.000000
3708623.979891,827.000000,1.000000
3708623.979895,844.000000,1.000000
3708623.981169,844.000000,1.000000
3708623.981177,831.000000,1.000000
3708623.982442,766.000000,1.000000
3708623.982444,749.000000,1.000000
3708623.992510,749.000000,1.000000
3708623.992513,764.000000,1.000000
3708623.998807,828.000000,1.000000
3708623.998813,845.000000,1.000000
3708624.005126,845.000000,1.000000
3708624.005133,831.000000,1.000000
3708624.013957,768.000000,1.000000
3708624.013962,750.000000,1.000000
3708624.032857,749.000000,1.000000
3708624.032864,764.000000,1.000000
3708624.032871,826.000000,1.000000
3708624.032878,845.000000,1.000000
3708624.039037,846.000000,1.000000
3708624.039041,829.000000,1.000000
3708624.047868,766.000000,1.000000
3708624.047871,749.000000,1.000000
3708624.054172,749.000000,1.000000
3708624.054176,764.000000,1.000000
3708624.072897,829.000000,1.000000
3708624.072903,846.000000,1.000000
3708624.072909,845.000000,1.000000
3708624.072911,830.000000,1.000000
3708624.077953,765.000000,1.000000
3708624.077959,749.000000,1.000000
3708624.084264,750.000000,1.000000
3708624.084267,764.000000,1.000000
3708624.094084,828.000000,1.000000
3708624.094087,846.000000,1.000000
3708624.102949,846.000000,1.000000
3708624.102956,830.000000,1.000000
3708624.109248,766.000000,1.000000
3708624.109253,749.000000,1.000000
3708624.118084,749.000000,1.000000
3708624.118091,763.000000,1.000000
3708624.126898,827.000000,1.000000
3708624.126901,845.000000,1.000000
3708624.134496,847.000000,1.000000
3708624.134502,831.000000,1.000000
3708624.140820,767.000000,1.000000
3708624.140823,750.000000,1.000000
3708624.149631,749.000000,1.000000
3708624.149634,764.000000,1.000000
3708624.168497,827.000000,1.000000
3708624.168501,845.000000,1.000000
3708624.168507,845.000000,1.000000
3708624.168508,831.000000,1.000000
3708624.173572,766.000000,1.000000
3708624.173576,748.000000,1.000000
3708624.181131,749.000000,1.000000
3708624.181137,765.000000,1.000000
3708624.189959,827.000000,1.000000
3708624.189962,845.000000,1.000000
3708624.222612,844.000000,1.000000
3708624.222618,830.000000,1.000000
3708624.235246,766.000000,1.000000
3708624.235252,748.000000,1.000000
3708624.236529,749.000000,1.000000
3708624.236532,763.000000,1.000000
3708624.237798,826.000000,1.000000
3708624.237801,845.000000,1.000000
3708624.240329,846.000000,1.000000
3708624.240332,832.000000,1.000000
3708624.242855,769.000000,1.000000
3708624.242858,752.000000,1.000000
3708624.244125,752.000000,1.000000
3708624.244131,767.000000,1.000000
3708624.255454,832.000000,1.000000
3708624.255458,851.000000,1.000000
3708624.261793,852.000000,1.000000
3708624.261800,838.000000,1.000000
3708624.268151,774.000000,1.000000
3708624.268154,757.000000,1.000000
3708624.276969,756.000000,1.000000
3708624.276972,771.000000,1.000000
3708624.285770,835.000000,1.000000
3708624.285773,851.000000,1.000000
3708624.295816,851.000000,1.000000
3708624.295821,836.000000,1.000000
3708624.300856,772.000000,1.000000
3708624.300860,754.000000,1.000000
3708624.309671,754.000000,1.000000
3708624.309674,769.000000,1.000000
3708624.328553,834.000000,1.000000
3708624.328558,851.000000,1.000000
3708624.328577,850.000000,1.000000
3708624.328578,834.000000,1.000000
3708624.334873,772.000000,1.000000
3708624.334876,755.000000,1.000000
3708624.341175,754.000000,1.000000
3708624.341180,770.000000,1.000000
3708624.349982,833.000000,1.000000
3708624.349988,850.000000,1.000000
3708624.357553,850.000000,1.000000
3708624.357557,836.000000,1.000000
3708624.364976,773.000000,1.000000
3708624.364983,755.000000,1.000000
3708624.373799,755.000000,1.000000
3708624.373804,770.000000,1.000000
3708624.382609,833.000000,1.000000
3708624.382612,851.000000,1.000000
3708624.388922,852.000000,1.000000
3708624.388928,837.000000,1.000000
3708624.397759,775.000000,1.000000
3708624.397763,756.000000,1.000000
3708624.406618,756.000000,1.000000
3708624.406624,771.000000,1.000000
3708624.415428,835.000000,1.000000
3708624.415431,851.000000,1.000000
3708624.420487,851.000000,1.000000
3708624.420492,836.000000,1.000000
3708624.429343,774.000000,1.000000
3708624.429348,755.000000,1.000000
3708624.438160,755.000000,1.000000
3708624.438166,770.000000,1.000000
3708624.444456,833.000000,1.000000
3708624.444459,850.000000,1.000000
3708624.453374,851.000000,1.000000
3708624.453380,837.000000,1.000000
3708624.473497,772.000000,1.000000
3708624.473503,755.000000,1.000000
3708624.473509,754.000000,1.000000
3708624.473511,769.000000,1.000000
3708624.478546,832.000000,1.000000
3708624.478549,850.000000,1.000000
3708624.487386,849.000000,1.000000
3708624.487393,833.000000,1.000000
3708624.493735,771.000000,1.000000
3708624.493739,754.000000,1.000000
3708624.521416,754.000000,1.000000
3708624.521421,769.000000,1.000000
3708624.535043,832.000000,1.000000
3708624.535048,850.000000,1.000000
3708624.536316,851.000000,1.000000
3708624.536321,836.000000,1.000000
3708624.537589,772.000000,1.000000
3708624.537594,753.000000,1.000000
3708624.540125,752.000000,1.000000
3708624.540130,769.000000,1.000000
3708624.542653,832.000000,1.000000
3708624.542656,849.000000,1.000000
3708624.550243,849.000000,1.000000
3708624.550247,835.000000,1.000000
3708624.557811,771.000000,1.000000
3708624.557815,754.000000,1.000000
3708624.564113,753.000000,1.000000
3708624.564120,768.000000,1.000000
3708624.572920,832.000000,1.000000
3708624.572927,850.000000,1.000000
3708624.591826,850.000000,1.000000
3708624.591833,835.000000,1.000000
3708624.591842,772.000000,1.000000
3708624.591843,753.000000,1.000000
3708624.598093,752.000000,1.000000
3708624.598099,767.000000,1.000000
3708624.605650,832.000000,1.000000
3708624.605656,850.000000,1.000000
3708624.614475,850.000000,1.000000
3708624.614481,834.000000,1.000000
3708624.632165,770.000000,1.000000
3708624.632169,753.000000,1.000000
3708624.632175,753.000000,1.000000
3708624.632184,768.000000,1.000000
3708624.638482,831.000000,1.000000
3708624.638487,849.000000,1.000000
3708624.644791,848.000000,1.000000
3708624.644795,833.000000,1.000000
3708624.653649,771.000000,1.000000
3708624.653654,754.000000,1.000000
3708624.662488,753.000000,1.000000
3708624.662494,768.000000,1.000000
3708624.667527,831.000000,1.000000
3708624.667530,849.000000,1.000000
3708624.677655,849.000000,1.000000
3708624.677660,834.000000,1.000000
3708624.689074,770.000000,1.000000
3708624.689077,752.000000,1.000000
3708624.695371,752.000000,1.000000
3708624.695382,769.000000,1.000000
3708624.701680,832.000000,1.000000
3708624.701682,850.000000,1.000000
3708624.710550,850.000000,1.000000
3708624.710556,833.000000,1.000000
3708624.719406,770.000000,1.000000
3708624.719411,753.000000,1.000000
3708624.724464,753.000000,1.000000
3708624.724470,767.000000,1.000000
3708624.733271,831.000000,1.000000
3708624.733274,849.000000,1.000000
3708624.752169,851.000000,1.000000
3708624.752174,835.000000,1.000000
3708624.752182,769.000000,1.000000
3708624.752183,753.000000,1.000000
3708624.758474,753.000000,1.000000
3708624.758477,767.000000,1.000000
3708624.767275,829.000000,1.000000
3708624.767278,848.000000,1.000000
3708624.773397,848.000000,1.000000
3708624.773402,834.000000,1.000000
3708624.784761,769.000000,1.000000
3708624.784764,751.000000,1.000000
3708624.788550,751.000000,1.000000
3708624.788554,766.000000,1.000000
3708624.797357,831.000000,1.000000
3708624.797362,849.000000,1.000000
3708624.824889,849.000000,1.000000
3708624.824894,834.000000,1.000000
3708624.834971,770.000000,1.000000
3708624.834976,754.000000,1.000000
3708624.836245,754.000000,1.000000
3708624.836249,768.000000,1.000000
3708624.838677,832.000000,1.000000
3708624.838681,849.000000,1.000000
3708624.839947,849.000000,1.000000
3708624.839951,835.000000,1.000000
3708624.846262,772.000000,1.000000
3708624.846267,754.000000,1.000000
3708624.855112,752.000000,1.000000
3708624.855116,767.000000,1.000000
3708624.861404,831.000000,1.000000
3708624.861407,849.000000,1.000000
3708624.870236,849.000000,1.000000
3708624.870242,833.000000,1.000000
3708624.889044,771.000000,1.000000
3708624.889050,754.000000,1.000000
3708624.889056,753.000000,1.000000
3708624.889059,767.000000,1.000000
3708624.894094,830.000000,1.000000
3708624.894097,848.000000,1.000000
3708624.900409,849.000000,1.000000
3708624.900416,832.000000,1.000000
3708624.909229,769.000000,1.000000
3708624.909232,752.000000,1.000000
3708624.919213,752.000000,1.000000
3708624.919218,767.000000,1.000000
3708624.925524,831.000000,1.000000
3708624.925527,849.000000,1.000000
3708624.934409,849.000000,1.000000
3708624.934414,835.000000,1.000000
3708624.945753,770.000000,1.000000
3708624.945759,753.000000,1.000000
3708624.949417,753.000000,1.000000
3708624.949420,767.000000,1.000000
3708624.958228,831.000000,1.000000
3708624.958231,849.000000,1.000000
3708624.965790,849.000000,1.000000
3708624.965794,834.000000,1.000000
3708624.974420,771.000000,1.000000
3708624.974423,752.000000,1.000000
3708624.980733,753.000000,1.000000
3708624.980736,769.000000,1.000000
3708624.989539,832.000000,1.000000
3708624.989545,851.000000,1.000000
3708625.004501,850.000000,1.000000
3708625.004506,837.000000,1.000000
3708625.004512,776.000000,1.000000
3708625.004513,762.000000,1.000000
3708625.013361,763.000000,1.000000
3708625.013365,779.000000,1.000000
3708625.022172,844.000000,1.000000
3708625.022176,862.000000,1.000000
3708625.041093,864.000000,1.000000
3708625.041098,850.000000,1.000000
3708625.041116,785.000000,1.000000
3708625.041118,768.000000,1.000000
3708625.044908,767.000000,1.000000
3708625.044912,783.000000,1.000000
3708625.052454,845.000000,1.000000
3708625.052456,861.000000,1.000000
3708625.072381,861.000000,1.000000
3708625.072385,847.000000,1.000000
3708625.072391,783.000000,1.000000
3708625.072392,765.000000,1.000000
3708625.078686,764.000000,1.000000
3708625.078689,779.000000,1.000000
3708625.084999,841.000000,1.000000
3708625.085004,860.000000,1.000000
3708625.093836,863.000000,1.000000
3708625.093840,849.000000,1.000000
3708625.121572,784.000000,1.000000
3708625.121578,767.000000,1.000000
3708625.135454,767.000000,1.000000
3708625.135469,782.000000,1.000000
3708625.136737,844.000000,1.000000
3708625.136741,861.000000,1.000000
3708625.138006,862.000000,1.000000
3708625.138008,847.000000,1.000000
3708625.139271,782.000000,1.000000
3708625.139274,764.000000,1.000000
3708625.141798,764.000000,1.000000
3708625.141800,778.000000,1.000000
3708625.149359,842.000000,1.000000
3708625.149362,861.000000,1.000000
3708625.163200,860.000000,1.000000
3708625.163205,844.000000,1.000000
3708625.165739,782.000000,1.000000
3708625.165743,764.000000,1.000000
3708625.173297,764.000000,1.000000
3708625.173303,779.000000,1.000000
3708625.193533,841.000000,1.000000
3708625.193538,859.000000,1.000000
3708625.193544,859.000000,1.000000
3708625.193545,844.000000,1.000000
3708625.198675,780.000000,1.000000
3708625.198678,763.000000,1.000000
3708625.204979,764.000000,1.000000
3708625.204984,779.000000,1.000000
3708625.213790,842.000000,1.000000
3708625.213792,858.000000,1.000000
3708625.222622,859.000000,1.000000
3708625.222626,845.000000,1.000000
3708625.228944,781.000000,1.000000
3708625.228947,764.000000,1.000000
3708625.259140,764.000000,1.000000
3708625.259145,779.000000,1.000000
3708625.261689,841.000000,1.000000
3708625.261692,859.000000,1.000000
3708625.262958,860.000000,1.000000
3708625.262961,845.000000,1.000000
3708625.264229,781.000000,1.000000
3708625.264233,763.000000,1.000000
3708625.271791,762.000000,1.000000
3708625.271794,778.000000,1.000000
3708625.278079,843.000000,1.000000
3708625.278082,860.000000,1.000000
3708625.289499,861.000000,1.000000
3708625.289503,845.000000,1.000000
3708625.294575,780.000000,1.000000
3708625.294578,764.000000,1.000000
3708625.300871,763.000000,1.000000
3708625.300874,777.000000,1.000000
3708625.309674,842.000000,1.000000
3708625.309676,859.000000,1.000000
3708625.327470,860.000000,1.000000
3708625.327478,845.000000,1.000000
3708625.328750,781.000000,1.000000
3708625.328754,764.000000,1.000000
3708625.335064,764.000000,1.000000
3708625.335067,779.000000,1.000000
3708625.341363,841.000000,1.000000
3708625.341369,859.000000,1.000000
3708625.350198,860.000000,1.000000
3708625.350243,845.000000,1.000000
3708625.359034,781.000000,1.000000
3708625.359037,763.000000,1.000000
3708625.365331,763.000000,1.000000
3708625.365337,777.000000,1.000000
3708625.376660,842.000000,1.000000
3708625.376664,860.000000,1.000000
3708625.382966,860.000000,1.000000
3708625.382974,845.000000,1.000000
3708625.388016,781.000000,1.000000
3708625.388021,764.000000,1.000000
3708625.396833,763.000000,1.000000
3708625.396839,778.000000,1.000000
3708625.420722,841.000000,1.000000
3708625.420728,860.000000,1.000000
3708625.435686,860.000000,1.000000
3708625.435711,844.000000,1.000000
3708625.436988,782.000000,1.000000
3708625.436991,764.000000,1.000000
3708625.438257,762.000000,1.000000
3708625.438261,777.000000,1.000000
3708625.440787,842.000000,1.000000
3708625.440793,860.000000,1.000000
3708625.445854,861.000000,1.000000
3708625.445860,845.000000,1.000000
3708625.457278,781.000000,1.000000
3708625.457287,764.000000,1.000000
3708625.461076,765.000000,1.000000
3708625.461082,780.000000,1.000000
3708625.469892,843.000000,1.000000
3708625.469897,861.000000,1.000000
3708625.488803,860.000000,1.000000
3708625.488809,845.000000,1.000000
3708625.488815,782.000000,1.000000
3708625.488816,763.000000,1.000000
3708625.493852,764.000000,1.000000
3708625.493855,780.000000,1.000000
3708625.500141,843.000000,1.000000
3708625.500147,861.000000,1.000000
3708625.510203,861.000000,1.000000
3708625.510210,846.000000,1.000000
3708625.519139,780.000000,1.000000
3708625.519153,765.000000,1.000000
3708625.525475,764.000000,1.000000
3708625.525478,780.000000,1.000000
3708625.534292,843.000000,1.000000
3708625.534298,861.000000,1.000000
3708625.545691,860.000000,1.000000
3708625.545696,844.000000,1.000000
3708625.548224,780.000000,1.000000
3708625.548227,764.000000,1.000000
3708625.557047,764.000000,1.000000
3708625.557053,779.000000,1.000000
3708625.565863,841.000000,1.000000
3708625.565868,858.000000,1.000000
3708625.574713,860.000000,1.000000
3708625.574718,845.000000,1.000000
3708625.581030,781.000000,1.000000
3708625.581035,763.000000,1.000000
3708625.589846,763.000000,1.000000
3708625.589849,779.000000,1.000000
3708625.608747,842.000000,1.000000
3708625.608751,858.000000,1.000000
3708625.610051,860.000000,1.000000
3708625.610054,845.000000,1.000000
3708625.615092,781.000000,1.000000
3708625.615097,763.000000,1.000000
3708625.621391,764.000000,1.000000
3708625.621395,780.000000,1.000000
3708625.632719,843.000000,1.000000
3708625.632724,860.000000,1.000000
3708625.639038,861.000000,1.000000
3708625.639043,845.000000,1.000000
3708625.646610,782.000000,1.000000
3708625.646614,765.000000,1.000000
3708625.654165,764.000000,1.000000
3708625.654171,778.000000,1.000000
3708625.662970,842.000000,1.000000
3708625.662973,860.000000,1.000000
3708625.669276,860.000000,1.000000
3708625.669283,846.000000,1.000000
3708625.676857,781.000000,1.000000
3708625.676861,763.000000,1.000000
3708625.685672,764.000000,1.000000
3708625.685676,779.000000,1.000000
3708625.694482,843.000000,1.000000
3708625.694485,860.000000,1.000000
3708625.722039,859.000000,1.000000
3708625.722044,844.000000,1.000000
3708625.735913,780.000000,1.000000
3708625.736038,764.000000,1.000000
3708625.736050,764.000000,1.000000
3708625.736051,778.000000,1.000000
3708625.738637,842.000000,1.000000
3708625.738640,859.000000,1.000000
3708625.739909,859.000000,1.000000
3708625.739912,844.000000,1.000000
3708625.742434,780.000000,1.000000
3708625.742438,764.000000,1.000000
3708625.749990,763.000000,1.000000
3708625.749996,778.000000,1.000000
3708625.768859,841.000000,1.000000
3708625.768864,859.000000,1.000000
3708625.768870,859.000000,1.000000
3708625.768871,844.000000,1.000000
3708625.775178,780.000000,1.000000
3708625.775185,764.000000,1.000000
3708625.781485,763.000000,1.000000
3708625.781490,778.000000,1.000000
3708625.790316,842.000000,1.000000
3708625.790320,859.000000,1.000000
3708625.801678,859.000000,1.000000
3708625.801724,846.000000,1.000000
3708625.804356,782.000000,1.000000
3708625.804359,765.000000,1.000000
3708625.814424,765.000000,1.000000
3708625.814429,780.000000,1.000000
3708625.823241,843.000000,1.000000
3708625.823247,861.000000,1.000000
3708625.832130,861.000000,1.000000
3708625.832135,846.000000,1.000000
3708625.837172,781.000000,1.000000
3708625.837176,764.000000,1.000000
3708625.845981,763.000000,1.000000
3708625.845986,778.000000,1.000000
3708625.864858,842.000000,1.000000
3708625.864863,859.000000,1.000000
3708625.864869,860.000000,1.000000
3708625.864870,844.000000,1.000000
3708625.868653,780.000000,1.000000
3708625.868660,765.000000,1.000000
3708625.877479,767.000000,1.000000
3708625.877482,781.000000,1.000000
3708625.888800,842.000000,1.000000
3708625.888804,862.000000,1.000000
3708625.894931,865.000000,1.000000
3708625.894950,852.000000,1.000000
3708625.901253,789.000000,1.000000
3708625.901258,772.000000,1.000000
3708625.910074,771.000000,1.000000
3708625.910076,786.000000,1.000000
3708625.918891,852.000000,1.000000
3708625.918897,868.000000,1.000000
3708625.925203,867.000000,1.000000
3708625.925208,853.000000,1.000000
3708625.934039,788.000000,1.000000
3708625.934043,768.000000,1.000000
3708625.941599,767.000000,1.000000
3708625.941603,782.000000,1.000000
3708625.947898,846.000000,1.000000
3708625.947904,863.000000,1.000000
3708625.958035,862.000000,1.000000
3708625.958041,846.000000,1.000000
3708625.969368,782.000000,1.000000
3708625.969372,764.000000,1.000000
3708625.975657,764.000000,1.000000
3708625.975659,779.000000,1.000000
3708625.981978,842.000000,1.000000
3708625.981983,860.000000,1.000000
3708625.990811,859.000000,1.000000
3708625.990816,843.000000,1.000000
3708626.022516,780.000000,1.000000
3708626.022522,762.000000,1.000000
3708626.022529,761.000000,1.000000
3708626.022530,776.000000,1.000000
3708626.035080,840.000000,1.000000
3708626.035085,857.000000,1.000000
3708626.036353,857.000000,1.000000
3708626.036358,842.000000,1.000000
3708626.037627,779.000000,1.000000
3708626.037632,761.000000,1.000000
3708626.040158,760.000000,1.000000
3708626.040164,775.000000,1.000000
3708626.046462,839.000000,1.000000
3708626.046465,856.000000,1.000000
3708626.057828,857.000000,1.000000
3708626.057833,843.000000,1.000000
3708626.060364,780.000000,1.000000
3708626.060367,762.000000,1.000000
3708626.069210,761.000000,1.000000
3708626.069214,777.000000,1.000000
3708626.078010,840.000000,1.000000
3708626.078013,857.000000,1.000000
3708626.084327,858.000000,1.000000
3708626.084333,844.000000,1.000000
3708626.093169,780.000000,1.000000
3708626.093175,762.000000,1.000000
3708626.102060,762.000000,1.000000
3708626.102063,776.000000,1.000000
3708626.109688,840.000000,1.000000
3708626.109691,858.000000,1.000000
3708626.117267,858.000000,1.000000
3708626.117277,844.000000,1.000000
3708626.126186,781.000000,1.000000
3708626.126190,763.000000,1.000000
3708626.135001,762.000000,1.000000
3708626.135005,778.000000,1.000000
3708626.141322,841.000000,1.000000
3708626.141327,858.000000,1.000000
3708626.150182,859.000000,1.000000
3708626.150187,843.000000,1.000000
3708626.169105,779.000000,1.000000
3708626.169110,762.000000,1.000000
3708626.169117,763.000000,1.000000
3708626.169118,777.000000,1.000000
3708626.175419,841.000000,1.000000
3708626.175421,858.000000,1.000000
3708626.181725,858.000000,1.000000
3708626.181730,843.000000,1.000000
3708626.190561,781.000000,1.000000
3708626.190565,762.000000,1.000000
3708626.205667,760.000000,1.000000
3708626.205673,777.000000,1.000000
3708626.205679,841.000000,1.000000
3708626.205680,859.000000,1.000000
3708626.214497,859.000000,1.000000
3708626.214503,844.000000,1.000000
3708626.224618,780.000000,1.000000
3708626.224622,761.000000,1.000000
3708626.228402,761.000000,1.000000
3708626.228407,777.000000,1.000000
3708626.237213,842.000000,1.000000
3708626.237217,859.000000,1.000000
3708626.246075,858.000000,1.000000
3708626.246083,843.000000,1.000000
3708626.254929,779.000000,1.000000
3708626.254932,763.000000,1.000000
3708626.259803,764.000000,1.000000
3708626.259806,778.000000,1.000000
3708626.269876,840.000000,1.000000
3708626.269881,858.000000,1.000000
3708626.288827,858.000000,1.000000
3708626.288832,843.000000,1.000000
3708626.288844,780.000000,1.000000
3708626.288845,762.000000,1.000000
3708626.295139,762.000000,1.000000
3708626.295142,777.000000,1.000000
3708626.321582,840.000000,1.000000
3708626.321591,857.000000,1.000000
3708626.335436,858.000000,1.000000
3708626.335440,842.000000,1.000000
3708626.336710,779.000000,1.000000
3708626.336716,763.000000,1.000000
3708626.336722,762.000000,1.000000
3708626.336723,777.000000,1.000000
3708626.339252,840.000000,1.000000
3708626.339256,856.000000,1.000000
3708626.341785,857.000000,1.000000
3708626.341789,843.000000,1.000000
3708626.350581,779.000000,1.000000
3708626.350586,762.000000,1.000000
3708626.359411,762.000000,1.000000
3708626.359413,776.000000,1.000000
3708626.365710,839.000000,1.000000
3708626.365712,857.000000,1.000000
3708626.374542,857.000000,1.000000
3708626.374547,843.000000,1.000000
3708626.383364,780.000000,1.000000
3708626.383368,761.000000,1.000000
3708626.394673,761.000000,1.000000
3708626.394676,777.000000,1.000000
3708626.398459,840.000000,1.000000
3708626.398462,856.000000,1.000000
3708626.406042,858.000000,1.000000
3708626.406060,842.000000,1.000000
3708626.414895,780.000000,1.000000
3708626.414900,763.000000,1.000000
3708626.421200,762.000000,1.000000
3708626.421206,777.000000,1.000000
3708626.430002,840.000000,1.000000
3708626.430005,858.000000,1.000000
3708626.448858,858.000000,1.000000
3708626.448863,843.000000,1.000000
3708626.448869,779.000000,1.000000
3708626.448870,761.000000,1.000000
3708626.455175,763.000000,1.000000
3708626.455181,777.000000,1.000000
3708626.461476,841.000000,1.000000
3708626.461479,859.000000,1.000000
3708626.470305,858.000000,1.000000
3708626.470312,844.000000,1.000000
3708626.480408,780.000000,1.000000
3708626.480412,762.000000,1.000000
3708626.484195,760.000000,1.000000
3708626.484200,775.000000,1.000000
3708626.493001,842.000000,1.000000
3708626.493004,859.000000,1.000000
3708626.501819,859.000000,1.000000
3708626.501826,844.000000,1.000000
3708626.509313,782.000000,1.000000
3708626.509317,765.000000,1.000000
3708626.539505,764.000000,1.000000
3708626.539510,779.000000,1.000000
3708626.540780,842.000000,1.000000
3708626.540784,859.000000,1.000000
3708626.542051,859.000000,1.000000
3708626.542054,843.000000,1.000000
3708626.543319,780.000000,1.000000
3708626.543323,763.000000,1.000000
3708626.550876,763.000000,1.000000
3708626.550881,777.000000,1.000000
3708626.555913,841.000000,1.000000
3708626.555916,859.000000,1.000000
3708626.568500,859.000000,1.000000
3708626.568518,843.000000,1.000000
3708626.574714,779.000000,1.000000
3708626.574718,763.000000,1.000000
3708626.581017,762.000000,1.000000
3708626.581021,778.000000,1.000000
3708626.589838,841.000000,1.000000
3708626.589844,859.000000,1.000000
3708626.598682,857.000000,1.000000
3708626.598688,843.000000,1.000000
3708626.621362,781.000000,1.000000
3708626.621366,763.000000,1.000000
3708626.635215,762.000000,1.000000
3708626.635221,778.000000,1.000000
3708626.636491,842.000000,1.000000
3708626.636495,858.000000,1.000000
3708626.639044,859.000000,1.000000
3708626.639050,843.000000,1.000000
3708626.641596,780.000000,1.000000
3708626.641600,763.000000,1.000000
3708626.645382,763.000000,1.000000
3708626.645389,778.000000,1.000000
3708626.654195,842.000000,1.000000
3708626.654201,858.000000,1.000000
3708626.660502,859.000000,1.000000
3708626.660507,844.000000,1.000000
3708626.669322,779.000000,1.000000
3708626.669327,762.000000,1.000000
3708626.679237,763.000000,1.000000
3708626.679240,778.000000,1.000000
3708626.685541,843.000000,1.000000
3708626.685544,858.000000,1.000000
3708626.694369,858.000000,1.000000
3708626.694374,845.000000,1.000000
3708626.712009,781.000000,1.000000
3708626.712014,764.000000,1.000000
3708626.712020,763.000000,1.000000
3708626.712021,779.000000,1.000000
3708626.718313,843.000000,1.000000
3708626.718318,858.000000,1.000000
3708626.729668,858.000000,1.000000
3708626.729672,842.000000,1.000000
3708626.732222,779.000000,1.000000
3708626.732225,762.000000,1.000000
3708626.743562,761.000000,1.000000
3708626.743565,776.000000,1.000000
3708626.747413,840.000000,1.000000
3708626.747416,858.000000,1.000000
3708626.757557,859.000000,1.000000
3708626.757564,843.000000,1.000000
3708626.771505,779.000000,1.000000
3708626.771511,762.000000,1.000000
3708626.777797,760.000000,1.000000
3708626.777800,776.000000,1.000000
3708626.784092,839.000000,1.000000
3708626.784099,856.000000,1.000000
3708626.790408,858.000000,1.000000
3708626.790413,842.000000,1.000000
3708626.797974,777.000000,1.000000
3708626.797978,759.000000,1.000000
3708626.806807,761.000000,1.000000
3708626.806813,776.000000,1.000000
3708626.813102,839.000000,1.000000
3708626.813107,856.000000,1.000000
3708626.821930,857.000000,1.000000
3708626.821936,843.000000,1.000000
3708626.830819,779.000000,1.000000
3708626.830823,761.000000,1.000000
3708626.838404,760.000000,1.000000
3708626.838409,775.000000,1.000000
3708626.856094,839.000000,1.000000
3708626.856108,857.000000,1.000000
3708626.856117,856.000000,1.000000
3708626.856119,841.000000,1.000000
3708626.862445,777.000000,1.000000
3708626.862449,760.000000,1.000000
3708626.876304,760.000000,1.000000
3708626.876307,775.000000,1.000000
3708626.878827,838.000000,1.000000
3708626.878830,855.000000,1.000000
3708626.886396,856.000000,1.000000
3708626.886401,840.000000,1.000000
3708626.897767,778.000000,1.000000
3708626.897771,760.000000,1.000000
3708626.926156,759.000000,1.000000
3708626.926161,774.000000,1.000000
3708626.934996,838.000000,1.000000
3708626.935002,856.000000,1.000000
3708626.936272,856.000000,1.000000
3708626.936279,841.000000,1.000000
3708626.941118,777.000000,1.000000
3708626.941124,760.000000,1.000000
3708626.943605,760.000000,1.000000
3708626.943610,774.000000,1.000000
3708626.944882,838.000000,1.000000
3708626.944886,856.000000,1.000000
3708626.958727,857.000000,1.000000
3708626.958732,841.000000,1.000000
3708626.958739,777.000000,1.000000
3708626.958740,760.000000,1.000000
3708626.963711,760.000000,1.000000
3708626.963713,775.000000,1.000000
3708626.982642,839.000000,1.000000
3708626.982648,856.000000,1.000000
3708626.982655,855.000000,1.000000
3708626.982657,840.000000,1.000000
3708626.991482,777.000000,1.000000
3708626.991487,761.000000,1.000000
3708626.997784,760.000000,1.000000
3708626.997790,775.000000,1.000000
3708627.006615,838.000000,1.000000
3708627.006619,854.000000,1.000000
3708627.024345,855.000000,1.000000
3708627.024351,841.000000,1.000000
3708627.024358,778.000000,1.000000
3708627.024360,762.000000,1.000000
3708627.028148,761.000000,1.000000
3708627.028153,774.000000,1.000000
3708627.036969,838.000000,1.000000
3708627.036975,857.000000,1.000000
3708627.045822,858.000000,1.000000
3708627.045830,843.000000,1.000000
3708627.052067,778.000000,1.000000
3708627.052071,762.000000,1.000000
3708627.063479,761.000000,1.000000
3708627.063485,775.000000,1.000000
3708627.069803,840.000000,1.000000
3708627.069809,856.000000,1.000000
3708627.078691,855.000000,1.000000
3708627.078704,841.000000,1.000000
3708627.085042,778.000000,1.000000
3708627.085047,761.000000,1.000000
3708627.093864,761.000000,1.000000
3708627.093867,777.000000,1.000000
3708627.102697,838.000000,1.000000
3708627.102699,857.000000,1.000000
3708627.111520,859.000000,1.000000
3708627.111526,844.000000,1.000000
3708627.116572,780.000000,1.000000
3708627.116576,762.000000,1.000000
3708627.125379,762.000000,1.000000
3708627.125383,777.000000,1.000000
3708627.145328,840.000000,1.000000
3708627.145346,858.000000,1.000000
3708627.145355,858.000000,1.000000
3708627.145357,842.000000,1.000000
3708627.148023,779.000000,1.000000
3708627.148026,763.000000,1.000000
3708627.161895,762.000000,1.000000
3708627.161898,776.000000,1.000000
3708627.165678,840.000000,1.000000
3708627.165684,858.000000,1.000000
3708627.174510,858.000000,1.000000
3708627.174529,842.000000,1.000000
3708627.183350,779.000000,1.000000
3708627.183364,763.000000,1.000000
3708627.188397,762.000000,1.000000
3708627.188400,777.000000,1.000000
3708627.198463,841.000000,1.000000
3708627.198466,859.000000,1.000000
3708627.226172,859.000000,1.000000
3708627.226176,844.000000,1.000000
3708627.234986,780.000000,1.000000
3708627.234991,762.000000,1.000000
3708627.236259,762.000000,1.000000
3708627.236263,777.000000,1.000000
3708627.237532,840.000000,1.000000
3708627.237536,857.000000,1.000000
3708627.240065,857.000000,1.000000
3708627.240068,842.000000,1.000000
3708627.245118,779.000000,1.000000
3708627.245121,761.000000,1.000000
3708627.253934,761.000000,1.000000
3708627.253940,776.000000,1.000000
3708627.262736,840.000000,1.000000
3708627.262742,859.000000,1.000000
3708627.270314,858.000000,1.000000
3708627.270318,842.000000,1.000000
3708627.276618,778.000000,1.000000
3708627.276622,761.000000,1.000000
3708627.287881,761.000000,1.000000
3708627.287888,777.000000,1.000000
3708627.305493,840.000000,1.000000
3708627.305498,858.000000,1.000000
3708627.305504,857.000000,1.000000
3708627.305506,842.000000,1.000000
3708627.309320,779.000000,1.000000
3708627.309329,761.000000,1.000000
3708627.316923,760.000000,1.000000
3708627.316929,777.000000,1.000000
3708627.325730,840.000000,1.000000
3708627.325733,857.000000,1.000000
3708627.332038,858.000000,1.000000
3708627.332042,843.000000,1.000000
3708627.340851,779.000000,1.000000
3708627.340855,762.000000,1.000000
3708627.349664,761.000000,1.000000
3708627.349669,776.000000,1.000000
3708627.358470,841.000000,1.000000
3708627.358472,858.000000,1.000000
3708627.364777,857.000000,1.000000
3708627.364782,842.000000,1.000000
3708627.373645,779.000000,1.000000
3708627.373650,763.000000,1.000000
3708627.382466,764.000000,1.000000
3708627.382473,779.000000,1.000000
3708627.391286,840.000000,1.000000
3708627.391291,857.000000,1.000000
3708627.396335,860.000000,1.000000
3708627.396340,845.000000,1.000000
3708627.408930,780.000000,1.000000
3708627.408935,763.000000,1.000000
3708627.415227,762.000000,1.000000
3708627.415233,776.000000,1.000000
3708627.421532,840.000000,1.000000
3708627.421535,858.000000,1.000000
3708627.429109,858.000000,1.000000
3708627.429115,844.000000,1.000000
3708627.447988,780.000000,1.000000
3708627.447994,763.000000,1.000000
3708627.448000,761.000000,1.000000
3708627.448005,776.000000,1.000000
3708627.454310,841.000000,1.000000
3708627.454313,858.000000,1.000000
3708627.461874,858.000000,1.000000
3708627.461879,843.000000,1.000000
3708627.470763,779.000000,1.000000
3708627.470779,761.000000,1.000000
3708627.478362,761.000000,1.000000
3708627.478368,778.000000,1.000000
3708627.485918,842.000000,1.000000
3708627.485921,858.000000,1.000000
3708627.493483,858.000000,1.000000
3708627.493488,843.000000,1.000000
3708627.522551,782.000000,1.000000
3708627.522557,763.000000,1.000000
3708627.535201,761.000000,1.000000
3708627.535205,776.000000,1.000000
3708627.536471,839.000000,1.000000
3708627.536475,858.000000,1.000000
3708627.537748,859.000000,1.000000
3708627.537753,845.000000,1.000000
3708627.540280,780.000000,1.000000
3708627.540286,763.000000,1.000000
3708627.542806,763.000000,1.000000
3708627.542809,777.000000,1.000000
3708627.550356,841.000000,1.000000
3708627.550362,859.000000,1.000000
3708627.567990,859.000000,1.000000
3708627.567994,843.000000,1.000000
3708627.568000,781.000000,1.000000
3708627.568001,763.000000,1.000000
3708627.574362,762.000000,1.000000
3708627.574365,778.000000,1.000000
3708627.581916,842.000000,1.000000
3708627.581921,859.000000,1.000000
3708627.590745,859.000000,1.000000
3708627.590750,845.000000,1.000000
3708627.609673,780.000000,1.000000
3708627.609677,762.000000,1.000000
3708627.609683,763.000000,1.000000
3708627.609688,779.000000,1.000000
3708627.614721,842.000000,1.000000
3708627.614723,858.000000,1.000000
3708627.621032,858.000000,1.000000
3708627.621039,844.000000,1.000000
3708627.639966,781.000000,1.000000
3708627.639972,764.000000,1.000000
3708627.639977,764.000000,1.000000
3708627.639983,779.000000,1.000000
3708627.646270,841.000000,1.000000
3708627.646288,860.000000,1.000000
3708627.655118,859.000000,1.000000
3708627.655122,844.000000,1.000000
3708627.662523,781.000000,1.000000
3708627.662527,763.000000,1.000000
3708627.673857,763.000000,1.000000
3708627.673863,779.000000,1.000000
3708627.680159,842.000000,1.000000
3708627.680163,859.000000,1.000000
3708627.685210,859.000000,1.000000
3708627.685214,844.000000,1.000000
3708627.694050,780.000000,1.000000
3708627.694054,763.000000,1.000000
3708627.712923,762.000000,1.000000
3708627.712927,778.000000,1.000000
3708627.712933,842.000000,1.000000
3708627.712936,860.000000,1.000000
3708627.717983,859.000000,1.000000
3708627.717990,845.000000,1.000000
3708627.726812,780.000000,1.000000
3708627.726827,762.000000,1.000000
3708627.733124,763.000000,1.000000
3708627.733127,779.000000,1.000000
3708627.741923,842.000000,1.000000
3708627.741926,860.000000,1.000000
3708627.748228,860.000000,1.000000
3708627.748234,844.000000,1.000000
3708627.760837,780.000000,1.000000
3708627.760840,763.000000,1.000000
3708627.767139,763.000000,1.000000
3708627.767142,778.000000,1.000000
3708627.774693,842.000000,1.000000
3708627.774698,860.000000,1.000000
3708627.782261,860.000000,1.000000
3708627.782266,844.000000,1.000000
3708627.789885,780.000000,1.000000
3708627.789888,763.000000,1.000000
3708627.819096,763.000000,1.000000
3708627.819102,778.000000,1.000000
3708627.844284,842.000000,1.000000
3708627.844290,859.000000,1.000000
3708627.857054,859.000000,1.000000
3708627.857058,845.000000,1.000000
3708627.858329,781.000000,1.000000
3708627.858333,762.000000,1.000000
3708627.859610,761.000000,1.000000
3708627.859627,776.000000,1.000000
3708627.863537,841.000000,1.000000
3708627.863540,858.000000,1.000000
3708627.864808,858.000000,1.000000
3708627.864814,842.000000,1.000000
3708627.864820,779.000000,1.000000
3708627.864821,761.000000,1.000000
3708627.864826,761.000000,1.000000
3708627.864827,777.000000,1.000000
3708627.869869,841.000000,1.000000
3708627.869871,858.000000,1.000000
3708627.883720,859.000000,1.000000
3708627.883725,845.000000,1.000000
3708627.886256,781.000000,1.000000
3708627.886262,762.000000,1.000000
3708627.893843,762.000000,1.000000
3708627.893847,777.000000,1.000000
3708627.902649,841.000000,1.000000
3708627.902655,858.000000,1.000000
3708627.908992,859.000000,1.000000
3708627.908996,843.000000,1.000000
3708627.916580,779.000000,1.000000
3708627.916584,762.000000,1.000000
3708627.934176,761.000000,1.000000
3708627.934182,777.000000,1.000000
3708627.935446,842.000000,1.000000
3708627.935449,858.000000,1.000000
3708627.940576,859.000000,1.000000
3708627.940589,842.000000,1.000000
3708627.950637,779.000000,1.000000
3708627.950654,762.000000,1.000000
3708627.959485,762.000000,1.000000
3708627.959488,777.000000,1.000000
3708627.968309,841.000000,1.000000
3708627.968314,858.000000,1.000000
3708627.985974,857.000000,1.000000
3708627.985979,842.000000,1.000000
3708627.985986,781.000000,1.000000
3708627.985987,764.000000,1.000000
3708627.988514,762.000000,1.000000
3708627.988518,777.000000,1.000000
3708627.998587,841.000000,1.000000
3708627.998593,859.000000,1.000000
3708628.006169,858.000000,1.000000
3708628.006214,844.000000,1.000000
3708628.015026,781.000000,1.000000
3708628.015043,763.000000,1.000000
3708628.021363,762.000000,1.000000
3708628.021368,777.000000,1.000000
3708628.030181,841.000000,1.000000
3708628.030184,859.000000,1.000000
3708628.038819,858.000000,1.000000
3708628.038824,843.000000,1.000000
3708628.044938,779.000000,1.000000
3708628.044943,763.000000,1.000000
3708628.053760,762.000000,1.000000
3708628.053766,778.000000,1.000000
3708628.062566,841.000000,1.000000
3708628.062569,859.000000,1.000000
3708628.068876,859.000000,1.000000
3708628.068881,843.000000,1.000000
3708628.076473,780.000000,1.000000
3708628.076479,764.000000,1.000000
3708628.086324,764.000000,1.000000
3708628.086337,776.000000,1.000000
3708628.097663,840.000000,1.000000
3708628.097666,859.000000,1.000000
3708628.121675,857.000000,1.000000
3708628.121684,844.000000,1.000000
3708628.135532,780.000000,1.000000
3708628.135537,761.000000,1.000000
3708628.136827,761.000000,1.000000
3708628.136830,775.000000,1.000000
3708628.141875,839.000000,1.000000
3708628.141879,856.000000,1.000000
3708628.144414,858.000000,1.000000
3708628.144423,842.000000,1.000000
3708628.144432,778.000000,1.000000
3708628.144433,761.000000,1.000000
3708628.149477,760.000000,1.000000
3708628.149480,776.000000,1.000000
3708628.168368,840.000000,1.000000
3708628.168381,857.000000,1.000000
3708628.168400,858.000000,1.000000
3708628.168402,841.000000,1.000000
3708628.174700,779.000000,1.000000
3708628.174703,762.000000,1.000000
3708628.182124,760.000000,1.000000
3708628.182129,776.000000,1.000000
3708628.190942,840.000000,1.000000
3708628.190946,857.000000,1.000000
3708628.199809,857.000000,1.000000
3708628.199813,842.000000,1.000000
3708628.204901,778.000000,1.000000
3708628.204905,761.000000,1.000000
3708628.213800,761.000000,1.000000
3708628.213806,776.000000,1.000000
3708628.222617,840.000000,1.000000
3708628.222622,857.000000,1.000000
3708628.228968,857.000000,1.000000
3708628.228975,842.000000,1.000000
3708628.239073,779.000000,1.000000
3708628.239084,761.000000,1.000000
3708628.247909,760.000000,1.000000
3708628.247915,777.000000,1.000000
3708628.265548,839.000000,1.000000
3708628.265552,856.000000,1.000000
3708628.265561,857.000000,1.000000
3708628.265562,842.000000,1.000000
3708628.269348,779.000000,1.000000
3708628.269352,762.000000,1.000000
3708628.280688,761.000000,1.000000
3708628.280691,774.000000,1.000000
3708628.284472,838.000000,1.000000
3708628.284478,856.000000,1.000000
3708628.293292,856.000000,1.000000
3708628.293297,843.000000,1.000000
3708628.312179,779.000000,1.000000
3708628.312183,760.000000,1.000000
3708628.312189,761.000000,1.000000
3708628.312192,776.000000,1.000000
3708628.318547,840.000000,1.000000
3708628.318550,857.000000,1.000000
3708628.324953,857.000000,1.000000
3708628.324988,841.000000,1.000000
3708628.333828,778.000000,1.000000
3708628.333831,761.000000,1.000000
3708628.342653,760.000000,1.000000
3708628.342656,775.000000,1.000000
3708628.348977,839.000000,1.000000
3708628.348980,856.000000,1.000000
3708628.360325,856.000000,1.000000
3708628.360330,841.000000,1.000000
3708628.366627,778.000000,1.000000
3708628.366630,760.000000,1.000000
3708628.375464,760.000000,1.000000
3708628.375467,774.000000,1.000000
3708628.381768,838.000000,1.000000
3708628.381773,857.000000,1.000000
3708628.390515,856.000000,1.000000
3708628.390521,841.000000,1.000000
3708628.422024,776.000000,1.000000
3708628.422030,760.000000,1.000000
3708628.422037,759.000000,1.000000
3708628.422038,774.000000,1.000000
3708628.434626,839.000000,1.000000
3708628.434630,855.000000,1.000000
3708628.435896,857.000000,1.000000
3708628.435898,842.000000,1.000000
3708628.437166,778.000000,1.000000
3708628.437172,760.000000,1.000000
3708628.439691,760.000000,1.000000
3708628.439693,774.000000,1.000000
3708628.445981,839.000000,1.000000
3708628.445984,856.000000,1.000000
3708628.452283,856.000000,1.000000
3708628.452288,842.000000,1.000000
3708628.462187,777.000000,1.000000
3708628.462191,760.000000,1.000000
3708628.469757,760.000000,1.000000
3708628.469763,775.000000,1.000000
3708628.479831,838.000000,1.000000
3708628.479835,855.000000,1.000000
3708628.484891,856.000000,1.000000
3708628.484900,840.000000,1.000000
3708628.493719,777.000000,1.000000
3708628.493723,760.000000,1.000000
3708628.502547,760.000000,1.000000
3708628.502550,775.000000,1.000000
3708628.508850,837.000000,1.000000
3708628.508853,855.000000,1.000000
3708628.517660,856.000000,1.000000
3708628.517665,841.000000,1.000000
3708628.528809,777.000000,1.000000
3708628.528815,761.000000,1.000000
3708628.535112,758.000000,1.000000
3708628.535115,774.000000,1.000000
3708628.541407,838.000000,1.000000
3708628.541410,854.000000,1.000000
3708628.550224,855.000000,1.000000
3708628.550230,841.000000,1.000000
3708628.567852,777.000000,1.000000
3708628.567858,760.000000,1.000000
3708628.567864,759.000000,1.000000
3708628.567869,776.000000,1.000000
3708628.574159,840.000000,1.000000
3708628.574165,856.000000,1.000000
3708628.581617,857.000000,1.000000
3708628.581622,841.000000,1.000000
3708628.590362,777.000000,1.000000
3708628.590366,759.000000,1.000000
3708628.599338,757.000000,1.000000
3708628.599342,774.000000,1.000000
3708628.605643,837.000000,1.000000
3708628.605648,856.000000,1.000000
3708628.617006,855.000000,1.000000
3708628.617011,838.000000,1.000000
3708628.622055,775.000000,1.000000
3708628.622059,756.000000,1.000000
3708628.628373,755.000000,1.000000
3708628.628379,771.000000,1.000000
3708628.637185,835.000000,1.000000
3708628.637190,851.000000,1.000000
3708628.646007,850.000000,1.000000
3708628.646012,836.000000,1.000000
3708628.654868,772.000000,1.000000
3708628.654872,756.000000,1.000000
3708628.661195,755.000000,1.000000
3708628.661200,771.000000,1.000000
3708628.669909,834.000000,1.000000
3708628.669913,851.000000,1.000000
3708628.688767,851.000000,1.000000
3708628.688773,837.000000,1.000000
3708628.688779,773.000000,1.000000
3708628.688780,756.000000,1.000000
3708628.696172,756.000000,1.000000
3708628.696178,771.000000,1.000000
3708628.721175,834.000000,1.000000
3708628.721179,852.000000,1.000000
3708628.735004,852.000000,1.000000
3708628.735010,836.000000,1.000000
3708628.736276,772.000000,1.000000
3708628.736282,754.000000,1.000000
3708628.738965,754.000000,1.000000
3708628.738969,770.000000,1.000000
3708628.738976,834.000000,1.000000
3708628.738977,852.000000,1.000000
3708628.741667,851.000000,1.000000
3708628.741671,835.000000,1.000000
3708628.751724,772.000000,1.000000
3708628.751728,754.000000,1.000000
3708628.759326,754.000000,1.000000
3708628.759330,770.000000,1.000000
3708628.765628,832.000000,1.000000
3708628.765634,849.000000,1.000000
3708628.774670,850.000000,1.000000
3708628.774675,835.000000,1.000000
3708628.784816,773.000000,1.000000
3708628.784819,755.000000,1.000000
3708628.788604,753.000000,1.000000
3708628.788607,769.000000,1.000000
3708628.797409,833.000000,1.000000
3708628.797412,850.000000,1.000000
3708628.806236,850.000000,1.000000
3708628.806244,835.000000,1.000000
3708628.815096,771.000000,1.000000
3708628.815102,754.000000,1.000000
3708628.821406,755.000000,1.000000
3708628.821412,769.000000,1.000000
3708628.830214,832.000000,1.000000
3708628.830217,850.000000,1.000000
3708628.837774,849.000000,1.000000
3708628.837779,834.000000,1.000000
3708628.846620,771.000000,1.000000
3708628.846632,754.000000,1.000000
3708628.852927,753.000000,1.000000
3708628.852929,769.000000,1.000000
3708628.865378,833.000000,1.000000
3708628.865468,851.000000,1.000000
3708628.869183,850.000000,1.000000
3708628.869188,836.000000,1.000000
3708628.878005,773.000000,1.000000
3708628.878008,755.000000,1.000000
3708628.886601,754.000000,1.000000
3708628.886611,768.000000,1.000000
3708628.892913,832.000000,1.000000
3708628.892916,851.000000,1.000000
3708628.901810,851.000000,1.000000
3708628.901814,835.000000,1.000000
3708628.910624,772.000000,1.000000
3708628.910628,756.000000,1.000000
3708628.919443,755.000000,1.000000
3708628.919450,769.000000,1.000000
3708628.925742,833.000000,1.000000
3708628.925745,851.000000,1.000000
3708628.934559,850.000000,1.000000
3708628.934564,837.000000,1.000000
3708628.944674,774.000000,1.000000
3708628.944677,755.000000,1.000000
3708628.949723,755.000000,1.000000
3708628.949726,770.000000,1.000000
3708628.958529,834.000000,1.000000
3708628.958531,850.000000,1.000000
3708628.976191,851.000000,1.000000
3708628.976202,836.000000,1.000000
3708628.976213,773.000000,1.000000
3708628.976214,756.000000,1.000000
3708628.982511,755.000000,1.000000
3708628.982517,769.000000,1.000000
3708629.022446,834.000000,1.000000
3708629.022452,850.000000,1.000000
3708629.022459,851.000000,1.000000
3708629.022462,836.000000,1.000000
3708629.035179,772.000000,1.000000
3708629.035185,756.000000,1.000000
3708629.036451,755.000000,1.000000
3708629.036453,769.000000,1.000000
3708629.037723,834.000000,1.000000
3708629.037726,849.000000,1.000000
3708629.040253,851.000000,1.000000
3708629.040257,837.000000,1.000000
3708629.042780,773.000000,1.000000
3708629.042786,755.000000,1.000000
3708629.046570,755.000000,1.000000
3708629.046572,770.000000,1.000000
3708629.054118,834.000000,1.000000
3708629.054120,852.000000,1.000000
3708629.060414,852.000000,1.000000
3708629.060418,838.000000,1.000000
3708629.070476,774.000000,1.000000
3708629.070479,757.000000,1.000000
3708629.099509,757.000000,1.000000
3708629.099514,772.000000,1.000000
3708629.102128,835.000000,1.000000
3708629.102133,853.000000,1.000000
3708629.103405,854.000000,1.000000
3708629.103410,838.000000,1.000000
3708629.103532,776.000000,1.000000
3708629.103536,758.000000,1.000000
3708629.111108,757.000000,1.000000
3708629.111112,772.000000,1.000000
3708629.117412,835.000000,1.000000
3708629.117416,854.000000,1.000000
3708629.128765,855.000000,1.000000
3708629.128771,839.000000,1.000000
3708629.135063,775.000000,1.000000
3708629.135066,758.000000,1.000000
3708629.141360,758.000000,1.000000
3708629.141374,773.000000,1.000000
3708629.150194,836.000000,1.000000
3708629.150196,854.000000,1.000000
3708629.157920,854.000000,1.000000
3708629.157925,839.000000,1.000000
3708629.165460,775.000000,1.000000
3708629.165467,758.000000,1.000000
3708629.174283,757.000000,1.000000
3708629.174289,772.000000,1.000000
3708629.183103,834.000000,1.000000
3708629.183109,853.000000,1.000000
3708629.189410,854.000000,1.000000
3708629.189416,840.000000,1.000000
3708629.196978,777.000000,1.000000
3708629.196982,758.000000,1.000000
3708629.205789,758.000000,1.000000
3708629.205795,774.000000,1.000000
3708629.214602,836.000000,1.000000
3708629.214608,854.000000,1.000000
3708629.220918,854.000000,1.000000
3708629.220923,838.000000,1.000000
3708629.229739,776.000000,1.000000
3708629.229743,759.000000,1.000000
3708629.239670,759.000000,1.000000
3708629.239673,772.000000,1.000000
3708629.245968,837.000000,1.000000
3708629.245971,854.000000,1.000000
3708629.253533,855.000000,1.000000
3708629.253538,841.000000,1.000000
3708629.272445,777.000000,1.000000
3708629.272449,758.000000,1.000000
3708629.272455,759.000000,1.000000
3708629.272456,773.000000,1.000000
3708629.278742,837.000000,1.000000
3708629.278745,854.000000,1.000000
3708629.290090,854.000000,1.000000
3708629.290097,839.000000,1.000000
3708629.292635,776.000000,1.000000
3708629.292639,758.000000,1.000000
3708629.321578,757.000000,1.000000
3708629.321583,771.000000,1.000000
3708629.334178,835.000000,1.000000
3708629.334184,853.000000,1.000000
3708629.335450,853.000000,1.000000
3708629.335457,838.000000,1.000000
3708629.336723,774.000000,1.000000
3708629.336725,757.000000,1.000000
3708629.339244,758.000000,1.000000
3708629.339247,774.000000,1.000000
3708629.343074,837.000000,1.000000
3708629.343077,854.000000,1.000000
3708629.350752,855.000000,1.000000
3708629.350758,839.000000,1.000000
3708629.359582,776.000000,1.000000
3708629.359585,759.000000,1.000000
3708629.364649,758.000000,1.000000
3708629.364654,774.000000,1.000000
3708629.374746,837.000000,1.000000
3708629.374752,854.000000,1.000000
3708629.382330,854.000000,1.000000
3708629.382335,839.000000,1.000000
3708629.391173,776.000000,1.000000
3708629.391177,758.000000,1.000000
3708629.397495,758.000000,1.000000
3708629.397497,773.000000,1.000000
3708629.406302,837.000000,1.000000
3708629.406308,854.000000,1.000000
3708629.425195,855.000000,1.000000
3708629.425199,839.000000,1.000000
3708629.425204,775.000000,1.000000
3708629.425206,757.000000,1.000000
3708629.428993,758.000000,1.000000
3708629.428999,772.000000,1.000000
3708629.437808,837.000000,1.000000
3708629.437814,854.000000,1.000000
3708629.445388,854.000000,1.000000
3708629.445397,839.000000,1.000000
3708629.456744,774.000000,1.000000
3708629.456747,758.000000,1.000000
3708629.460538,758.000000,1.000000
3708629.460541,772.000000,1.000000
3708629.470708,836.000000,1.000000
3708629.470714,853.000000,1.000000
3708629.479538,853.000000,1.000000
3708629.479543,839.000000,1.000000
3708629.484613,775.000000,1.000000
3708629.484617,759.000000,1.000000
3708629.493425,758.000000,1.000000
3708629.493428,773.000000,1.000000
3708629.502245,836.000000,1.000000
3708629.502251,852.000000,1.000000
3708629.510931,851.000000,1.000000
3708629.510939,839.000000,1.000000
3708629.517245,775.000000,1.000000
3708629.517249,757.000000,1.000000
3708629.536050,756.000000,1.000000
3708629.536054,769.000000,1.000000
3708629.536060,831.000000,1.000000
3708629.536062,850.000000,1.000000
3708629.542336,852.000000,1.000000
3708629.542342,836.000000,1.000000
3708629.548651,771.000000,1.000000
3708629.548654,754.000000,1.000000
3708629.557459,754.000000,1.000000
3708629.557462,768.000000,1.000000
3708629.566265,833.000000,1.000000
3708629.566270,851.000000,1.000000
3708629.585258,850.000000,1.000000
3708629.585263,835.000000,1.000000
3708629.585269,771.000000,1.000000
3708629.585270,755.000000,1.000000
3708629.589052,755.000000,1.000000
3708629.589054,770.000000,1.000000
3708629.597867,832.000000,1.000000
3708629.597873,851.000000,1.000000
3708629.621774,850.000000,1.000000
3708629.621783,835.000000,1.000000
3708629.635662,772.000000,1.000000
3708629.635671,755.000000,1.000000
3708629.636944,753.000000,1.000000
3708629.636947,769.000000,1.000000
3708629.638217,832.000000,1.000000
3708629.638221,849.000000,1.000000
3708629.639491,851.000000,1.000000
3708629.639495,835.000000,1.000000
3708629.644546,771.000000,1.000000
3708629.644550,754.000000,1.000000
3708629.653259,754.000000,1.000000
3708629.653265,769.000000,1.000000
3708629.662065,832.000000,1.000000
3708629.662068,851.000000,1.000000
3708629.670899,851.000000,1.000000
3708629.670904,835.000000,1.000000
3708629.678377,772.000000,1.000000
3708629.678380,755.000000,1.000000
3708629.685958,754.000000,1.000000
3708629.685960,769.000000,1.000000
3708629.696037,834.000000,1.000000
3708629.696040,851.000000,1.000000
3708629.701117,849.000000,1.000000
3708629.701122,835.000000,1.000000
3708629.712455,771.000000,1.000000
3708629.712460,753.000000,1.000000
3708629.718767,753.000000,1.000000
3708629.718773,770.000000,1.000000
3708629.725074,832.000000,1.000000
3708629.725077,850.000000,1.000000
3708629.733906,850.000000,1.000000
3708629.733924,834.000000,1.000000
3708629.742834,770.000000,1.000000
3708629.742839,753.000000,1.000000
3708629.749145,753.000000,1.000000
3708629.749151,768.000000,1.000000
3708629.757959,832.000000,1.000000
3708629.757965,850.000000,1.000000
3708629.766865,849.000000,1.000000
3708629.766871,835.000000,1.000000
3708629.775702,771.000000,1.000000
3708629.775705,754.000000,1.000000
3708629.782006,754.000000,1.000000
3708629.782013,768.000000,1.000000
3708629.793359,832.000000,1.000000
3708629.793362,851.000000,1.000000
3708629.799682,850.000000,1.000000
3708629.799687,835.000000,1.000000
3708629.805990,771.000000,1.000000
3708629.805995,753.000000,1.000000
3708629.814816,753.000000,1.000000
3708629.814822,767.000000,1.000000
3708629.832437,831.000000,1.000000
3708629.832442,851.000000,1.000000
3708629.832448,850.000000,1.000000
3708629.832449,835.000000,1.000000
3708629.838745,771.000000,1.000000
3708629.838749,754.000000,1.000000
3708629.847557,753.000000,1.000000
3708629.847563,769.000000,1.000000
3708629.853854,832.000000,1.000000
3708629.853860,850.000000,1.000000
3708629.862696,850.000000,1.000000
3708629.862701,834.000000,1.000000
3708629.867741,770.000000,1.000000
3708629.867747,752.000000,1.000000
3708629.879073,754.000000,1.000000
3708629.879079,770.000000,1.000000
3708629.886426,832.000000,1.000000
3708629.886433,848.000000,1.000000
3708629.895257,848.000000,1.000000
3708629.895262,834.000000,1.000000
3708629.921690,770.000000,1.000000
3708629.921695,753.000000,1.000000
3708629.935538,754.000000,1.000000
3708629.935543,768.000000,1.000000
3708629.936811,830.000000,1.000000
3708629.936813,849.000000,1.000000
3708629.938087,849.000000,1.000000
3708629.938090,834.000000,1.000000
3708629.939359,770.000000,1.000000
3708629.939365,754.000000,1.000000
3708629.943139,754.000000,1.000000
3708629.943142,769.000000,1.000000
3708629.950691,832.000000,1.000000
3708629.950696,851.000000,1.000000
3708629.960780,852.000000,1.000000
3708629.960789,836.000000,1.000000
3708629.964570,772.000000,1.000000
3708629.964576,756.000000,1.000000
3708629.973409,755.000000,1.000000
3708629.973415,770.000000,1.000000
3708629.992329,833.000000,1.000000
3708629.992334,850.000000,1.000000
3708629.992340,850.000000,1.000000
3708629.992341,834.000000,1.000000
3708629.998681,772.000000,1.000000
3708629.998684,754.000000,1.000000
3708630.003762,753.000000,1.000000
3708630.003766,768.000000,1.000000
3708630.018701,832.000000,1.000000
3708630.018707,849.000000,1.000000
3708630.021250,851.000000,1.000000
3708630.021255,835.000000,1.000000
3708630.028804,770.000000,1.000000
3708630.028809,754.000000,1.000000
3708630.037643,755.000000,1.000000
3708630.037649,769.000000,1.000000
3708630.048978,833.000000,1.000000
3708630.048986,850.000000,1.000000
3708630.054024,851.000000,1.000000
3708630.054028,835.000000,1.000000
3708630.060332,772.000000,1.000000
3708630.060335,752.000000,1.000000
3708630.074183,753.000000,1.000000
3708630.074189,769.000000,1.000000
3708630.076709,832.000000,1.000000
3708630.076712,852.000000,1.000000
3708630.085484,852.000000,1.000000
3708630.085489,836.000000,1.000000
3708630.094301,773.000000,1.000000
3708630.094305,755.000000,1.000000
3708630.113193,756.000000,1.000000
3708630.113196,771.000000,1.000000
3708630.113203,833.000000,1.000000
3708630.113209,851.000000,1.000000
3708630.119528,851.000000,1.000000
3708630.119548,835.000000,1.000000
3708630.128396,772.000000,1.000000
3708630.128405,755.000000,1.000000
3708630.133447,753.000000,1.000000
3708630.133454,770.000000,1.000000
3708630.144773,833.000000,1.000000
3708630.144776,850.000000,1.000000
3708630.148566,851.000000,1.000000
3708630.148571,836.000000,1.000000
3708630.157401,772.000000,1.000000
3708630.157422,755.000000,1.000000
3708630.166258,754.000000,1.000000
3708630.166261,769.000000,1.000000
3708630.175063,832.000000,1.000000
3708630.175066,851.000000,1.000000
3708630.181369,851.000000,1.000000
3708630.181376,836.000000,1.000000
3708630.190224,772.000000,1.000000
3708630.190229,754.000000,1.000000
3708630.202692,753.000000,1.000000
3708630.202695,769.000000,1.000000
3708630.221618,834.000000,1.000000
3708630.221624,852.000000,1.000000
3708630.235481,850.000000,1.000000
3708630.235489,836.000000,1.000000
3708630.236756,772.000000,1.000000
3708630.236759,755.000000,1.000000
3708630.239285,755.000000,1.000000
3708630.239290,769.000000,1.000000
3708630.241825,833.000000,1.000000
3708630.241829,850.000000,1.000000
3708630.245617,851.000000,1.000000
3708630.245622,836.000000,1.000000
3708630.264565,773.000000,1.000000
3708630.264570,755.000000,1.000000
3708630.264576,754.000000,1.000000
3708630.264581,769.000000,1.000000
3708630.268359,834.000000,1.000000
3708630.268363,851.000000,1.000000
3708630.278255,852.000000,1.000000
3708630.278262,836.000000,1.000000
3708630.287087,773.000000,1.000000
3708630.287091,756.000000,1.000000
3708630.292129,754.000000,1.000000
3708630.292132,770.000000,1.000000
3708630.303452,833.000000,1.000000
3708630.303458,850.000000,1.000000
3708630.309762,851.000000,1.000000
3708630.309768,836.000000,1.000000
3708630.318598,772.000000,1.000000
3708630.318601,754.000000,1.000000
3708630.324899,754.000000,1.000000
3708630.324906,769.000000,1.000000
3708630.333709,833.000000,1.000000
3708630.333715,850.000000,1.000000
3708630.341272,850.000000,1.000000
3708630.341277,835.000000,1.000000
3708630.351404,771.000000,1.000000
3708630.351407,754.000000,1.000000
3708630.380418,755.000000,1.000000
3708630.380424,769.000000,1.000000
3708630.382947,833.000000,1.000000
3708630.382951,851.000000,1.000000
3708630.384215,851.000000,1.000000
3708630.384225,837.000000,1.000000
3708630.385497,772.000000,1.000000
3708630.385500,753.000000,1.000000
3708630.388022,754.000000,1.000000
3708630.388025,770.000000,1.000000
3708630.396828,833.000000,1.000000
3708630.396831,850.000000,1.000000
3708630.405638,851.000000,1.000000
3708630.405663,835.000000,1.000000
3708630.425569,771.000000,1.000000
3708630.425572,754.000000,1.000000
3708630.425579,753.000000,1.000000
3708630.425581,769.000000,1.000000
3708630.429366,833.000000,1.000000
3708630.429371,850.000000,1.000000
3708630.438217,850.000000,1.000000
3708630.438222,836.000000,1.000000
3708630.447058,771.000000,1.000000
3708630.447063,753.000000,1.000000
3708630.455875,753.000000,1.000000
3708630.455881,770.000000,1.000000
3708630.462174,834.000000,1.000000
3708630.462178,852.000000,1.000000
3708630.472300,851.000000,1.000000
3708630.472305,835.000000,1.000000
3708630.478612,772.000000,1.000000
3708630.478615,755.000000,1.000000
3708630.484937,755.000000,1.000000
3708630.484943,769.000000,1.000000
3708630.493744,833.000000,1.000000
3708630.493746,851.000000,1.000000
3708630.521467,851.000000,1.000000
3708630.521473,835.000000,1.000000
3708630.535318,774.000000,1.000000
3708630.535324,756.000000,1.000000
3708630.536595,754.000000,1.000000
3708630.536599,770.000000,1.000000
3708630.536614,834.000000,1.000000
3708630.536616,851.000000,1.000000
3708630.540437,851.000000,1.000000
3708630.540441,837.000000,1.000000
3708630.541712,774.000000,1.000000
3708630.541715,757.000000,1.000000
3708630.554328,757.000000,1.000000
3708630.554334,771.000000,1.000000
3708630.560629,834.000000,1.000000
3708630.560632,852.000000,1.000000
3708630.565729,852.000000,1.000000
3708630.565733,838.000000,1.000000
3708630.573311,774.000000,1.000000
3708630.573314,758.000000,1.000000
3708630.582129,756.000000,1.000000
3708630.582136,771.000000,1.000000
3708630.588431,835.000000,1.000000
3708630.588437,852.000000,1.000000
3708630.597252,853.000000,1.000000
3708630.597257,838.000000,1.000000
3708630.606082,774.000000,1.000000
3708630.606085,757.000000,1.000000
3708630.614921,757.000000,1.000000
3708630.614927,773.000000,1.000000
3708630.621225,836.000000,1.000000
3708630.621228,853.000000,1.000000
3708630.632438,853.000000,1.000000
3708630.632444,838.000000,1.000000
3708630.638791,776.000000,1.000000
3708630.638797,757.000000,1.000000
3708630.645101,756.000000,1.000000
3708630.645107,771.000000,1.000000
3708630.653929,837.000000,1.000000
3708630.653934,855.000000,1.000000
3708630.673010,854.000000,1.000000
3708630.673016,839.000000,1.000000
3708630.673026,776.000000,1.000000
3708630.673027,758.000000,1.000000
3708630.679331,758.000000,1.000000
3708630.679337,772.000000,1.000000
3708630.688139,836.000000,1.000000
3708630.688142,853.000000,1.000000
3708630.694446,855.000000,1.000000
3708630.694451,839.000000,1.000000
3708630.712083,775.000000,1.000000
3708630.712087,757.000000,1.000000
3708630.712093,756.000000,1.000000
3708630.712094,772.000000,1.000000
3708630.718384,835.000000,1.000000
3708630.718390,854.000000,1.000000
3708630.724699,854.000000,1.000000
3708630.724710,838.000000,1.000000
3708630.733607,775.000000,1.000000
3708630.733611,757.000000,1.000000
3708630.742522,756.000000,1.000000
3708630.742525,771.000000,1.000000
3708630.748821,834.000000,1.000000
3708630.748826,852.000000,1.000000
3708630.757646,852.000000,1.000000
3708630.757654,838.000000,1.000000
3708630.766493,774.000000,1.000000
3708630.766499,757.000000,1.000000
3708630.775310,756.000000,1.000000
3708630.775312,771.000000,1.000000
3708630.781609,834.000000,1.000000
3708630.781615,851.000000,1.000000
3708630.790442,852.000000,1.000000
3708630.790447,838.000000,1.000000
3708630.821877,774.000000,1.000000
3708630.821884,756.000000,1.000000
3708630.835734,755.000000,1.000000
3708630.835739,771.000000,1.000000
3708630.837007,835.000000,1.000000
3708630.837013,852.000000,1.000000
3708630.837019,850.000000,1.000000
3708630.837020,837.000000,1.000000
3708630.839554,773.000000,1.000000
3708630.839561,756.000000,1.000000
3708630.842083,755.000000,1.000000
3708630.842086,771.000000,1.000000
3708630.844605,834.000000,1.000000
3708630.844608,850.000000,1.000000
3708630.853445,851.000000,1.000000
3708630.853451,836.000000,1.000000
3708630.863331,772.000000,1.000000
3708630.863335,755.000000,1.000000
3708630.869637,753.000000,1.000000
3708630.869643,767.000000,1.000000
3708630.878455,830.000000,1.000000
3708630.878457,848.000000,1.000000
3708630.888600,848.000000,1.000000
3708630.888606,834.000000,1.000000
3708630.894962,769.000000,1.000000
3708630.894967,752.000000,1.000000
3708630.901268,751.000000,1.000000
3708630.901275,766.000000,1.000000
3708630.910085,831.000000,1.000000
3708630.910087,848.000000,1.000000
3708630.918917,849.000000,1.000000
3708630.918921,833.000000,1.000000
3708630.925225,769.000000,1.000000
3708630.925230,753.000000,1.000000
3708630.934111,752.000000,1.000000
3708630.934114,766.000000,1.000000
3708630.952988,830.000000,1.000000
3708630.952993,848.000000,1.000000
3708630.953000,848.000000,1.000000
3708630.953001,833.000000,1.000000
3708630.959321,769.000000,1.000000
3708630.959325,751.000000,1.000000
3708630.968150,751.000000,1.000000
3708630.968157,767.000000,1.000000
3708630.973193,831.000000,1.000000
3708630.973199,847.000000,1.000000
3708630.985791,847.000000,1.000000
3708630.985796,834.000000,1.000000
3708630.989589,769.000000,1.000000
3708630.989593,752.000000,1.000000
3708630.998404,752.000000,1.000000
3708630.998410,767.000000,1.000000
3708631.005967,830.000000,1.000000
3708631.005971,847.000000,1.000000
3708631.012266,847.000000,1.000000
3708631.012273,833.000000,1.000000
3708631.022119,769.000000,1.000000
3708631.022124,751.000000,1.000000
3708631.030818,750.000000,1.000000
3708631.030823,766.000000,1.000000
3708631.038380,830.000000,1.000000
3708631.038385,847.000000,1.000000
3708631.044711,847.000000,1.000000
3708631.044726,831.000000,1.000000
3708631.056077,768.000000,1.000000
3708631.056081,750.000000,1.000000
3708631.062366,751.000000,1.000000
3708631.062369,766.000000,1.000000
3708631.071165,829.000000,1.000000
3708631.071171,847.000000,1.000000
3708631.077484,847.000000,1.000000
3708631.077489,831.000000,1.000000
3708631.096285,767.000000,1.000000
3708631.096292,749.000000,1.000000
3708631.096298,750.000000,1.000000
3708631.096315,765.000000,1.000000
3708631.121628,829.000000,1.000000
3708631.121633,846.000000,1.000000
3708631.135465,847.000000,1.000000
3708631.135468,833.000000,1.000000
3708631.136737,770.000000,1.000000
3708631.136743,751.000000,1.000000
3708631.138016,751.000000,1.000000
3708631.138020,766.000000,1.000000
3708631.140548,828.000000,1.000000
3708631.140562,846.000000,1.000000
3708631.143177,846.000000,1.000000
3708631.143180,832.000000,1.000000
3708631.149493,768.000000,1.000000
3708631.149496,751.000000,1.000000
3708631.158305,751.000000,1.000000
3708631.158307,765.000000,1.000000
3708631.167122,829.000000,1.000000
3708631.167137,845.000000,1.000000
3708631.174700,846.000000,1.000000
3708631.174704,832.000000,1.000000
3708631.181013,767.000000,1.000000
3708631.181017,749.000000,1.000000
3708631.189823,750.000000,1.000000
3708631.189829,765.000000,1.000000
3708631.198630,828.000000,1.000000
3708631.198636,845.000000,1.000000
3708631.204943,847.000000,1.000000
3708631.204948,831.000000,1.000000
3708631.213766,767.000000,1.000000
3708631.213770,751.000000,1.000000
3708631.232651,750.000000,1.000000
3708631.232657,765.000000,1.000000
3708631.232664,829.000000,1.000000
3708631.232667,846.000000,1.000000
3708631.238979,847.000000,1.000000
3708631.238991,832.000000,1.000000
3708631.247694,768.000000,1.000000
3708631.247733,749.000000,1.000000
3708631.255322,749.000000,1.000000
3708631.255328,764.000000,1.000000
3708631.272976,828.000000,1.000000
3708631.272981,846.000000,1.000000
3708631.273021,847.000000,1.000000
3708631.273023,830.000000,1.000000
3708631.279354,765.000000,1.000000
3708631.279358,748.000000,1.000000
3708631.284403,747.000000,1.000000
3708631.284406,759.000000,1.000000
3708631.293209,819.000000,1.000000
3708631.293212,834.000000,1.000000
3708631.302027,833.000000,1.000000
3708631.302033,814.000000,1.000000
3708631.308350,749.000000,1.000000
3708631.308355,731.000000,1.000000
3708631.320762,730.000000,1.000000
3708631.320769,744.000000,1.000000
3708631.327068,808.000000,1.000000
3708631.327070,826.000000,1.000000
3708631.336003,826.000000,1.000000
3708631.336009,810.000000,1.000000
3708631.341057,746.000000,1.000000
3708631.341061,729.000000,1.000000
3708631.349885,728.000000,1.000000
3708631.349890,743.000000,1.000000
3708631.358694,807.000000,1.000000
3708631.358697,825.000000,1.000000
3708631.364997,825.000000,1.000000
3708631.365002,809.000000,1.000000
3708631.373827,745.000000,1.000000
3708631.373833,728.000000,1.000000
3708631.392682,728.000000,1.000000
3708631.392685,743.000000,1.000000
3708631.392692,807.000000,1.000000
3708631.392697,825.000000,1.000000
3708631.397759,824.000000,1.000000
3708631.397768,809.000000,1.000000
3708631.420460,747.000000,1.000000
3708631.420464,729.000000,1.000000
3708631.435768,728.000000,1.000000
3708631.435773,744.000000,1.000000
3708631.437075,808.000000,1.000000
3708631.437083,824.000000,1.000000
3708631.439620,823.000000,1.000000
3708631.439623,810.000000,1.000000
3708631.442144,747.000000,1.000000
3708631.442147,730.000000,1.000000
3708631.445926,729.000000,1.000000
3708631.445933,743.000000,1.000000
3708631.454737,806.000000,1.000000
3708631.454739,824.000000,1.000000
3708631.461034,825.000000,1.000000
3708631.461038,810.000000,1.000000
3708631.469852,746.000000,1.000000
3708631.469856,727.000000,1.000000
3708631.478664,728.000000,1.000000
3708631.478670,743.000000,1.000000
3708631.484966,807.000000,1.000000
3708631.484972,824.000000,1.000000
3708631.493689,824.000000,1.000000
3708631.493705,809.000000,1.000000
3708631.507547,745.000000,1.000000
3708631.507551,728.000000,1.000000
3708631.510072,728.000000,1.000000
3708631.510075,744.000000,1.000000
3708631.517623,807.000000,1.000000
3708631.517626,823.000000,1.000000
3708631.526451,825.000000,1.000000
3708631.526457,811.000000,1.000000
3708631.545349,747.000000,1.000000
3708631.545353,729.000000,1.000000
3708631.545359,728.000000,1.000000
3708631.545362,744.000000,1.000000
3708631.549143,807.000000,1.000000
3708631.549149,825.000000,1.000000
3708631.566782,825.000000,1.000000
3708631.566787,811.000000,1.000000
3708631.566793,747.000000,1.000000
3708631.566795,730.000000,1.000000
3708631.573019,730.000000,1.000000
3708631.573022,745.000000,1.000000
3708631.585615,808.000000,1.000000
3708631.585619,824.000000,1.000000
3708631.589530,824.000000,1.000000
3708631.589537,810.000000,1.000000
3708631.598235,746.000000,1.000000
3708631.598239,728.000000,1.000000
3708631.607048,729.000000,1.000000
3708631.607054,743.000000,1.000000
3708631.615865,807.000000,1.000000
3708631.615870,825.000000,1.000000
3708631.620938,825.000000,1.000000
3708631.620943,810.000000,1.000000
3708631.629775,746.000000,1.000000
3708631.629778,728.000000,1.000000
3708631.657552,729.000000,1.000000
3708631.657556,745.000000,1.000000
3708631.660084,808.000000,1.000000
3708631.660087,825.000000,1.000000
3708631.661358,826.000000,1.000000
3708631.661361,811.000000,1.000000
3708631.662630,747.000000,1.000000
3708631.662634,729.000000,1.000000
3708631.672725,728.000000,1.000000
3708631.672730,743.000000,1.000000
3708631.676506,806.000000,1.000000
3708631.676509,826.000000,1.000000
3708631.686491,826.000000,1.000000
3708631.686496,809.000000,1.000000
3708631.721813,747.000000,1.000000
3708631.721818,732.000000,1.000000
3708631.721840,732.000000,1.000000
3708631.721842,748.000000,1.000000
3708631.735699,812.000000,1.000000
3708631.735706,829.000000,1.000000
3708631.736974,829.000000,1.000000
3708631.736981,814.000000,1.000000
3708631.738248,751.000000,1.000000
3708631.738254,734.000000,1.000000
3708631.740778,733.000000,1.000000
3708631.740784,748.000000,1.000000
3708631.742049,811.000000,1.000000
3708631.742052,829.000000,1.000000
3708631.753463,830.000000,1.000000
3708631.753467,814.000000,1.000000
3708631.759779,750.000000,1.000000
3708631.759783,734.000000,1.000000
3708631.765911,735.000000,1.000000
3708631.765916,749.000000,1.000000
3708631.774733,813.000000,1.000000
3708631.774738,830.000000,1.000000
3708631.783555,831.000000,1.000000
3708631.783591,816.000000,1.000000
3708631.791178,750.000000,1.000000
3708631.791183,734.000000,1.000000
3708631.797483,735.000000,1.000000
3708631.797489,749.000000,1.000000
3708631.806301,813.000000,1.000000
3708631.806306,830.000000,1.000000
3708631.825213,829.000000,1.000000
3708631.825229,815.000000,1.000000
3708631.825236,752.000000,1.000000
3708631.825237,735.000000,1.000000
3708631.829028,733.000000,1.000000
3708631.829034,749.000000,1.000000
3708631.837844,812.000000,1.000000
3708631.837850,830.000000,1.000000
3708631.845496,830.000000,1.000000
3708631.845501,814.000000,1.000000
3708631.851836,751.000000,1.000000
3708631.851839,734.000000,1.000000
3708631.861810,733.000000,1.000000
3708631.861816,749.000000,1.000000
3708631.870642,813.000000,1.000000
3708631.870647,829.000000,1.000000
3708631.879659,830.000000,1.000000
3708631.879664,816.000000,1.000000
3708631.885995,752.000000,1.000000
3708631.885998,734.000000,1.000000
3708631.893548,734.000000,1.000000
3708631.893551,750.000000,1.000000
3708631.903617,813.000000,1.000000
3708631.903625,829.000000,1.000000
3708631.911214,830.000000,1.000000
3708631.911218,817.000000,1.000000
3708631.916279,752.000000,1.000000
3708631.916282,734.000000,1.000000
3708631.928934,735.000000,1.000000
3708631.928938,750.000000,1.000000
3708631.935240,813.000000,1.000000
3708631.935246,831.000000,1.000000
3708631.941562,831.000000,1.000000
3708631.941566,815.000000,1.000000
3708631.950434,753.000000,1.000000
3708631.950441,736.000000,1.000000
3708631.964334,736.000000,1.000000
3708631.964342,749.000000,1.000000
3708631.966867,813.000000,1.000000
3708631.966873,831.000000,1.000000
3708631.974445,831.000000,1.000000
3708631.974450,816.000000,1.000000
3708631.982012,753.000000,1.000000
3708631.982015,736.000000,1.000000
3708631.988305,735.000000,1.000000
3708631.988311,752.000000,1.000000
3708631.999625,815.000000,1.000000
3708631.999630,833.000000,1.000000
3708632.024826,833.000000,1.000000
3708632.024831,817.000000,1.000000
3708632.035969,752.000000,1.000000
3708632.035975,736.000000,1.000000
3708632.037271,736.000000,1.000000
3708632.037276,752.000000,1.000000
3708632.038544,816.000000,1.000000
3708632.038548,833.000000,1.000000
3708632.041075,833.000000,1.000000
3708632.041079,818.000000,1.000000
3708632.046128,755.000000,1.000000
3708632.046134,737.000000,1.000000
3708632.054948,738.000000,1.000000
3708632.054951,754.000000,1.000000
3708632.061238,817.000000,1.000000
3708632.061241,834.000000,1.000000
3708632.070082,835.000000,1.000000
3708632.070088,820.000000,1.000000
3708632.080187,756.000000,1.000000
3708632.080190,738.000000,1.000000
3708632.085122,737.000000,1.000000
3708632.085135,754.000000,1.000000
3708632.093950,817.000000,1.000000
3708632.093953,834.000000,1.000000
3708632.112945,834.000000,1.000000
3708632.112951,820.000000,1.000000
3708632.112959,755.000000,1.000000
3708632.112960,738.000000,1.000000
3708632.119256,738.000000,1.000000
3708632.119261,753.000000,1.000000
3708632.125555,817.000000,1.000000
3708632.125557,833.000000,1.000000
3708632.134372,834.000000,1.000000
3708632.134378,819.000000,1.000000
3708632.141984,755.000000,1.000000
3708632.142015,739.000000,1.000000
3708632.148329,739.000000,1.000000
3708632.148335,754.000000,1.000000
3708632.157133,818.000000,1.000000
3708632.157139,836.000000,1.000000
3708632.168485,836.000000,1.000000
3708632.168491,821.000000,1.000000
3708632.175952,756.000000,1.000000
3708632.175956,739.000000,1.000000
3708632.180990,738.000000,1.000000
3708632.180993,753.000000,1.000000
3708632.189801,817.000000,1.000000
3708632.189807,835.000000,1.000000
3708632.198648,834.000000,1.000000
3708632.198653,820.000000,1.000000
3708632.204995,756.000000,1.000000
3708632.204999,739.000000,1.000000
3708632.213809,738.000000,1.000000
3708632.213813,753.000000,1.000000
3708632.232716,818.000000,1.000000
3708632.232720,835.000000,1.000000
3708632.232726,835.000000,1.000000
3708632.232728,820.000000,1.000000
3708632.237769,758.000000,1.000000
3708632.237772,740.000000,1.000000
3708632.246578,739.000000,1.000000
3708632.246584,755.000000,1.000000
3708632.251615,818.000000,1.000000
3708632.251619,834.000000,1.000000
3708632.265492,835.000000,1.000000
3708632.265507,821.000000,1.000000
3708632.269402,757.000000,1.000000
3708632.269414,741.000000,1.000000
3708632.278318,740.000000,1.000000
3708632.278322,755.000000,1.000000
3708632.287122,817.000000,1.000000
3708632.287125,834.000000,1.000000
3708632.295945,835.000000,1.000000
3708632.295950,820.000000,1.000000
3708632.322400,756.000000,1.000000
3708632.322409,738.000000,1.000000
3708632.335020,739.000000,1.000000
3708632.335027,754.000000,1.000000
3708632.336292,817.000000,1.000000
3708632.336295,834.000000,1.000000
3708632.337562,834.000000,1.000000
3708632.337566,820.000000,1.000000
3708632.340091,757.000000,1.000000
3708632.340098,739.000000,1.000000
3708632.341365,739.000000,1.000000
3708632.341371,754.000000,1.000000
3708632.348917,817.000000,1.000000
3708632.348920,836.000000,1.000000
3708632.357613,835.000000,1.000000
3708632.357629,820.000000,1.000000
3708632.376510,756.000000,1.000000
3708632.376514,739.000000,1.000000
3708632.376521,739.000000,1.000000
3708632.376522,754.000000,1.000000
3708632.382815,817.000000,1.000000
3708632.382818,834.000000,1.000000
3708632.401764,834.000000,1.000000
3708632.401769,819.000000,1.000000
3708632.401775,756.000000,1.000000
3708632.401776,738.000000,1.000000
3708632.405561,739.000000,1.000000
3708632.405563,754.000000,1.000000
3708632.424486,817.000000,1.000000
3708632.424492,834.000000,1.000000
3708632.424518,835.000000,1.000000
3708632.424520,820.000000,1.000000
3708632.429567,756.000000,1.000000
3708632.429572,739.000000,1.000000
3708632.440938,739.000000,1.000000
3708632.440944,753.000000,1.000000
3708632.444721,817.000000,1.000000
3708632.444724,835.000000,1.000000
3708632.453577,834.000000,1.000000
3708632.453584,820.000000,1.000000
3708632.462418,757.000000,1.000000
3708632.462422,738.000000,1.000000
3708632.468720,738.000000,1.000000
3708632.468723,754.000000,1.000000
3708632.478785,817.000000,1.000000
3708632.478788,835.000000,1.000000
3708632.487614,834.000000,1.000000
3708632.487625,821.000000,1.000000
3708632.505277,758.000000,1.000000
3708632.505282,739.000000,1.000000
3708632.505289,738.000000,1.000000
3708632.505309,753.000000,1.000000
3708632.509089,817.000000,1.000000
3708632.509092,834.000000,1.000000
3708632.516696,833.000000,1.000000
3708632.516701,820.000000,1.000000
3708632.525516,756.000000,1.000000
3708632.525519,740.000000,1.000000
3708632.544380,738.000000,1.000000
3708632.544384,752.000000,1.000000
3708632.544390,816.000000,1.000000
3708632.544392,834.000000,1.000000
3708632.549490,834.000000,1.000000
3708632.549498,819.000000,1.000000
3708632.558324,756.000000,1.000000
3708632.558329,738.000000,1.000000
3708632.567155,738.000000,1.000000
3708632.567159,753.000000,1.000000
3708632.575976,816.000000,1.000000
3708632.575979,833.000000,1.000000
3708632.581035,835.000000,1.000000
3708632.581040,819.000000,1.000000
3708632.589854,755.000000,1.000000
3708632.589860,737.000000,1.000000
3708632.598684,737.000000,1.000000
3708632.598690,753.000000,1.000000
3708632.621345,816.000000,1.000000
3708632.621353,835.000000,1.000000
3708632.635188,835.000000,1.000000
3708632.635194,819.000000,1.000000
3708632.636461,755.000000,1.000000
3708632.636468,738.000000,1.000000
3708632.637736,738.000000,1.000000
3708632.637742,753.000000,1.000000
3708632.641602,818.000000,1.000000
3708632.641610,835.000000,1.000000
3708632.645393,834.000000,1.000000
3708632.645397,818.000000,1.000000
3708632.665613,755.000000,1.000000
3708632.665620,737.000000,1.000000
3708632.665627,738.000000,1.000000
3708632.665628,753.000000,1.000000
3708632.669414,816.000000,1.000000
3708632.669419,834.000000,1.000000
3708632.678251,833.000000,1.000000
3708632.678258,818.000000,1.000000
3708632.693363,754.000000,1.000000
3708632.693366,737.000000,1.000000
3708632.693373,737.000000,1.000000
3708632.693375,751.000000,1.000000
3708632.704709,815.000000,1.000000
3708632.704715,832.000000,1.000000
3708632.709789,833.000000,1.000000
3708632.709802,818.000000,1.000000
3708632.718674,753.000000,1.000000
3708632.718677,737.000000,1.000000
3708632.724996,737.000000,1.000000
3708632.725002,752.000000,1.000000
3708632.733801,814.000000,1.000000
3708632.733806,832.000000,1.000000
3708632.742624,834.000000,1.000000
3708632.742630,818.000000,1.000000
3708632.748959,753.000000,1.000000
3708632.748963,736.000000,1.000000
3708632.756528,737.000000,1.000000
3708632.756531,753.000000,1.000000
3708632.766592,816.000000,1.000000
3708632.766598,834.000000,1.000000
3708632.785240,833.000000,1.000000
3708632.785245,818.000000,1.000000
3708632.785251,755.000000,1.000000
3708632.785252,738.000000,1.000000
3708632.789033,738.000000,1.000000
3708632.789039,752.000000,1.000000
3708632.801623,816.000000,1.000000
3708632.801628,834.000000,1.000000
3708632.804157,833.000000,1.000000
3708632.804162,818.000000,1.000000
3708632.813003,755.000000,1.000000
3708632.813006,738.000000,1.000000
3708632.831869,737.000000,1.000000
3708632.831876,751.000000,1.000000
3708632.831883,815.000000,1.000000
3708632.831884,832.000000,1.000000
3708632.839486,832.000000,1.000000
3708632.839490,817.000000,1.000000
3708632.845841,752.000000,1.000000
3708632.845846,737.000000,1.000000
3708632.854659,735.000000,1.000000
3708632.854665,750.000000,1.000000
3708632.863468,814.000000,1.000000
3708632.863470,832.000000,1.000000
3708632.869800,833.000000,1.000000
3708632.869805,819.000000,1.000000
3708632.879878,755.000000,1.000000
3708632.879881,738.000000,1.000000
3708632.886188,738.000000,1.000000
3708632.886195,754.000000,1.000000
3708632.896251,816.000000,1.000000
3708632.896254,834.000000,1.000000
3708632.921461,834.000000,1.000000
3708632.921468,819.000000,1.000000
3708632.946772,755.000000,1.000000
3708632.946780,737.000000,1.000000
3708632.959348,737.000000,1.000000
3708632.959351,751.000000,1.000000
3708632.959357,815.000000,1.000000
3708632.959358,833.000000,1.000000
3708632.960623,832.000000,1.000000
3708632.960626,816.000000,1.000000
3708632.964519,753.000000,1.000000
3708632.964524,734.000000,1.000000
3708632.967109,734.000000,1.000000
3708632.967113,749.000000,1.000000
3708632.972169,813.000000,1.000000
3708632.972172,830.000000,1.000000
3708632.974697,828.000000,1.000000
3708632.974701,815.000000,1.000000
3708632.975966,752.000000,1.000000
3708632.975971,734.000000,1.000000
3708632.982265,734.000000,1.000000
3708632.982270,748.000000,1.000000
3708632.988566,812.000000,1.000000
3708632.988569,830.000000,1.000000
3708632.997393,829.000000,1.000000
3708632.997400,814.000000,1.000000
3708633.006217,752.000000,1.000000
3708633.006221,733.000000,1.000000
3708633.015040,733.000000,1.000000
3708633.015045,748.000000,1.000000
3708633.021114,812.000000,1.000000
3708633.021119,831.000000,1.000000
3708633.029956,831.000000,1.000000
3708633.029961,816.000000,1.000000
3708633.038829,752.000000,1.000000
3708633.038833,734.000000,1.000000
3708633.045137,732.000000,1.000000
3708633.045140,749.000000,1.000000
3708633.053959,812.000000,1.000000
3708633.053965,829.000000,1.000000
3708633.067851,830.000000,1.000000
3708633.067856,814.000000,1.000000
3708633.074144,750.000000,1.000000
3708633.074147,734.000000,1.000000
3708633.077925,734.000000,1.000000
3708633.077928,748.000000,1.000000
3708633.086732,811.000000,1.000000
3708633.086738,828.000000,1.000000
3708633.104235,829.000000,1.000000
3708633.104240,814.000000,1.000000
3708633.104268,750.000000,1.000000
3708633.104270,733.000000,1.000000
3708633.108044,732.000000,1.000000
3708633.108051,748.000000,1.000000
3708633.116846,811.000000,1.000000
3708633.116849,828.000000,1.000000
3708633.126942,829.000000,1.000000
3708633.126987,815.000000,1.000000
3708633.138333,751.000000,1.000000
3708633.138339,734.000000,1.000000
3708633.142118,733.000000,1.000000
3708633.142121,748.000000,1.000000
3708633.152186,810.000000,1.000000
3708633.152193,828.000000,1.000000
3708633.159807,827.000000,1.000000
3708633.159843,812.000000,1.000000
3708633.164991,746.000000,1.000000
3708633.164996,728.000000,1.000000
3708633.173833,726.000000,1.000000
3708633.173838,740.000000,1.000000
3708633.182652,804.000000,1.000000
3708633.182665,823.000000,1.000000
3708633.191466,822.000000,1.000000
3708633.191470,807.000000,1.000000
3708633.197772,742.000000,1.000000
3708633.197776,725.000000,1.000000
3708633.221712,725.000000,1.000000
3708633.221717,741.000000,1.000000
3708633.221724,804.000000,1.000000
3708633.221725,822.000000,1.000000
3708633.235588,822.000000,1.000000
3708633.235592,807.000000,1.000000
3708633.236857,743.000000,1.000000
3708633.236863,725.000000,1.000000
3708633.238131,725.000000,1.000000
3708633.238137,740.000000,1.000000
3708633.244426,804.000000,1.000000
3708633.244429,822.000000,1.000000
3708633.253253,822.000000,1.000000
3708633.253258,807.000000,1.000000
3708633.262094,742.000000,1.000000
