# participant_id: Blink
# gesture: custom
# trial_number: 5
# stream_name: BioRadio_Configuration
# timestamp: 20260430_100321
# samples: 2580
# duration_sec: 10.310
# nominal_sample_rate: 250.0
# effective_sample_rate: 250.15
#
timestamp,EMG1,GSR2
3708711.056198,625.000000,1.000000
3708711.056203,609.000000,1.000000
3708711.062496,608.000000,1.000000
3708711.062500,624.000000,1.000000
3708711.070043,686.000000,1.000000
3708711.070046,703.000000,1.000000
3708711.078881,704.000000,1.000000
3708711.078887,689.000000,1.000000
3708711.087730,625.000000,1.000000
3708711.087735,607.000000,1.000000
3708711.094022,607.000000,1.000000
3708711.094024,623.000000,1.000000
3708711.102840,687.000000,1.000000
3708711.102843,703.000000,1.000000
3708711.111684,703.000000,1.000000
3708711.111691,689.000000,1.000000
3708711.117988,625.000000,1.000000
3708711.117992,607.000000,1.000000
3708711.126794,607.000000,1.000000
3708711.126797,621.000000,1.000000
3708711.134339,685.000000,1.000000
3708711.134342,703.000000,1.000000
3708711.143224,704.000000,1.000000
3708711.143228,687.000000,1.000000
3708711.150690,625.000000,1.000000
3708711.150695,608.000000,1.000000
3708711.160765,606.000000,1.000000
3708711.160770,622.000000,1.000000
3708711.173340,686.000000,1.000000
3708711.173345,704.000000,1.000000
3708711.175881,704.000000,1.000000
3708711.175895,689.000000,1.000000
3708711.182198,625.000000,1.000000
3708711.182203,608.000000,1.000000
3708711.200726,607.000000,1.000000
3708711.200732,622.000000,1.000000
3708711.200738,686.000000,1.000000
3708711.200744,702.000000,1.000000
3708711.223065,703.000000,1.000000
3708711.223069,686.000000,1.000000
3708711.236906,624.000000,1.000000
3708711.236912,607.000000,1.000000
3708711.238186,607.000000,1.000000
3708711.238217,623.000000,1.000000
3708711.242140,686.000000,1.000000
3708711.242226,703.000000,1.000000
3708711.242273,703.000000,1.000000
3708711.242278,687.000000,1.000000
3708711.248622,623.000000,1.000000
3708711.248637,606.000000,1.000000
3708711.254969,606.000000,1.000000
3708711.254974,621.000000,1.000000
3708711.263790,685.000000,1.000000
3708711.263793,703.000000,1.000000
3708711.271375,702.000000,1.000000
3708711.271385,687.000000,1.000000
3708711.277695,624.000000,1.000000
3708711.277699,606.000000,1.000000
3708711.289040,606.000000,1.000000
3708711.289043,621.000000,1.000000
3708711.295336,685.000000,1.000000
3708711.295339,702.000000,1.000000
3708711.314270,703.000000,1.000000
3708711.314278,687.000000,1.000000
3708711.314284,624.000000,1.000000
3708711.314289,608.000000,1.000000
3708711.318073,607.000000,1.000000
3708711.318079,622.000000,1.000000
3708711.326887,684.000000,1.000000
3708711.326889,702.000000,1.000000
3708711.335781,702.000000,1.000000
3708711.335787,688.000000,1.000000
3708711.340857,625.000000,1.000000
3708711.340862,608.000000,1.000000
3708711.349667,608.000000,1.000000
3708711.349673,623.000000,1.000000
3708711.358485,686.000000,1.000000
3708711.358490,703.000000,1.000000
3708711.367326,703.000000,1.000000
3708711.367332,687.000000,1.000000
3708711.379843,624.000000,1.000000
3708711.379849,608.000000,1.000000
3708711.382375,607.000000,1.000000
3708711.382381,621.000000,1.000000
3708711.393698,686.000000,1.000000
3708711.393701,704.000000,1.000000
3708711.397576,704.000000,1.000000
3708711.397582,689.000000,1.000000
3708711.406413,624.000000,1.000000
3708711.406418,605.000000,1.000000
3708711.415232,605.000000,1.000000
3708711.415238,622.000000,1.000000
3708711.424054,686.000000,1.000000
3708711.424057,704.000000,1.000000
3708711.430384,703.000000,1.000000
3708711.430389,687.000000,1.000000
3708711.437988,624.000000,1.000000
3708711.437993,607.000000,1.000000
3708711.458112,607.000000,1.000000
3708711.458116,621.000000,1.000000
3708711.458122,684.000000,1.000000
3708711.458128,703.000000,1.000000
3708711.461922,703.000000,1.000000
3708711.461928,688.000000,1.000000
3708711.474535,624.000000,1.000000
3708711.474539,606.000000,1.000000
3708711.477063,607.000000,1.000000
3708711.477066,621.000000,1.000000
3708711.487134,684.000000,1.000000
3708711.487140,701.000000,1.000000
3708711.494714,701.000000,1.000000
3708711.494720,688.000000,1.000000
3708711.501021,627.000000,1.000000
3708711.501025,610.000000,1.000000
3708711.527162,609.000000,1.000000
3708711.527167,625.000000,1.000000
3708711.537243,689.000000,1.000000
3708711.537247,709.000000,1.000000
3708711.538510,718.000000,1.000000
3708711.538513,706.000000,1.000000
3708711.539779,649.000000,1.000000
3708711.539781,643.000000,1.000000
3708711.542304,651.000000,1.000000
3708711.542311,679.000000,1.000000
3708711.549856,760.000000,1.000000
3708711.549862,789.000000,1.000000
3708711.558712,797.000000,1.000000
3708711.558717,791.000000,1.000000
3708711.568647,735.000000,1.000000
3708711.568651,719.000000,1.000000
3708711.573701,721.000000,1.000000
3708711.573704,738.000000,1.000000
3708711.583780,803.000000,1.000000
3708711.583783,817.000000,1.000000
3708711.601440,820.000000,1.000000
3708711.601445,804.000000,1.000000
3708711.601451,740.000000,1.000000
3708711.601452,721.000000,1.000000
3708711.607747,720.000000,1.000000
3708711.607752,731.000000,1.000000
3708711.616559,792.000000,1.000000
3708711.616565,804.000000,1.000000
3708711.624146,798.000000,1.000000
3708711.624151,778.000000,1.000000
3708711.634229,710.000000,1.000000
3708711.634232,687.000000,1.000000
3708711.638011,683.000000,1.000000
3708711.638017,693.000000,1.000000
3708711.645561,750.000000,1.000000
3708711.645564,762.000000,1.000000
3708711.655664,758.000000,1.000000
3708711.655679,737.000000,1.000000
3708711.662073,668.000000,1.000000
3708711.662077,648.000000,1.000000
3708711.670891,643.000000,1.000000
3708711.670894,654.000000,1.000000
3708711.679700,713.000000,1.000000
3708711.679703,729.000000,1.000000
3708711.687287,726.000000,1.000000
3708711.687292,708.000000,1.000000
3708711.693619,643.000000,1.000000
3708711.693625,624.000000,1.000000
3708711.702452,622.000000,1.000000
3708711.702458,636.000000,1.000000
3708711.713776,697.000000,1.000000
3708711.713779,714.000000,1.000000
3708711.717577,712.000000,1.000000
3708711.717581,695.000000,1.000000
3708711.736499,630.000000,1.000000
3708711.736503,612.000000,1.000000
3708711.736509,610.000000,1.000000
3708711.736510,623.000000,1.000000
3708711.742881,686.000000,1.000000
3708711.742887,704.000000,1.000000
3708711.761812,704.000000,1.000000
3708711.761820,689.000000,1.000000
3708711.761826,625.000000,1.000000
3708711.761827,606.000000,1.000000
3708711.768129,606.000000,1.000000
3708711.768134,620.000000,1.000000
3708711.776947,683.000000,1.000000
3708711.776951,701.000000,1.000000
3708711.783259,701.000000,1.000000
3708711.783270,686.000000,1.000000
3708711.790826,623.000000,1.000000
3708711.790831,606.000000,1.000000
3708711.797127,605.000000,1.000000
3708711.797133,620.000000,1.000000
3708711.822292,685.000000,1.000000
3708711.822299,701.000000,1.000000
3708711.837388,701.000000,1.000000
3708711.837393,686.000000,1.000000
3708711.838736,622.000000,1.000000
3708711.838741,604.000000,1.000000
3708711.840007,604.000000,1.000000
3708711.840011,620.000000,1.000000
3708711.841279,684.000000,1.000000
3708711.841281,702.000000,1.000000
3708711.847593,701.000000,1.000000
3708711.847603,685.000000,1.000000
3708711.853939,622.000000,1.000000
3708711.853943,605.000000,1.000000
3708711.862765,605.000000,1.000000
3708711.862770,619.000000,1.000000
3708711.876693,683.000000,1.000000
3708711.876698,700.000000,1.000000
3708711.883018,700.000000,1.000000
3708711.883023,685.000000,1.000000
3708711.885572,621.000000,1.000000
3708711.885575,604.000000,1.000000
3708711.893132,604.000000,1.000000
3708711.893135,619.000000,1.000000
3708711.901935,683.000000,1.000000
3708711.901941,699.000000,1.000000
3708711.911935,698.000000,1.000000
3708711.911941,683.000000,1.000000
3708711.918275,620.000000,1.000000
3708711.918279,604.000000,1.000000
3708711.927092,603.000000,1.000000
3708711.927095,617.000000,1.000000
3708711.935911,681.000000,1.000000
3708711.935915,698.000000,1.000000
3708711.940964,697.000000,1.000000
3708711.940972,683.000000,1.000000
3708711.949784,621.000000,1.000000
3708711.949790,603.000000,1.000000
3708711.958596,603.000000,1.000000
3708711.958602,618.000000,1.000000
3708711.969910,682.000000,1.000000
3708711.969914,700.000000,1.000000
3708711.974788,700.000000,1.000000
3708711.974792,685.000000,1.000000
3708711.983610,622.000000,1.000000
3708711.983613,604.000000,1.000000
3708711.992455,603.000000,1.000000
3708711.992458,618.000000,1.000000
3708712.001269,680.000000,1.000000
3708712.001271,699.000000,1.000000
3708712.007588,700.000000,1.000000
3708712.007595,685.000000,1.000000
3708712.025346,620.000000,1.000000
3708712.025356,604.000000,1.000000
3708712.025362,604.000000,1.000000
3708712.025363,619.000000,1.000000
3708712.031658,682.000000,1.000000
3708712.031661,699.000000,1.000000
3708712.037984,700.000000,1.000000
3708712.037989,684.000000,1.000000
3708712.046833,620.000000,1.000000
3708712.046837,603.000000,1.000000
3708712.056909,604.000000,1.000000
3708712.056915,620.000000,1.000000
3708712.060693,683.000000,1.000000
3708712.060696,700.000000,1.000000
3708712.070764,700.000000,1.000000
3708712.070769,684.000000,1.000000
3708712.089610,621.000000,1.000000
3708712.089614,605.000000,1.000000
3708712.089622,604.000000,1.000000
3708712.089623,617.000000,1.000000
3708712.095921,681.000000,1.000000
3708712.095924,699.000000,1.000000
3708712.123668,699.000000,1.000000
3708712.123673,685.000000,1.000000
3708712.137560,620.000000,1.000000
3708712.137567,605.000000,1.000000
3708712.137741,604.000000,1.000000
3708712.137743,618.000000,1.000000
3708712.140339,682.000000,1.000000
3708712.140345,698.000000,1.000000
3708712.141612,699.000000,1.000000
3708712.141615,684.000000,1.000000
3708712.144153,621.000000,1.000000
3708712.144158,605.000000,1.000000
3708712.150457,604.000000,1.000000
3708712.150463,619.000000,1.000000
3708712.159272,682.000000,1.000000
3708712.159278,699.000000,1.000000
3708712.178157,699.000000,1.000000
3708712.178164,684.000000,1.000000
3708712.178170,620.000000,1.000000
3708712.178175,603.000000,1.000000
3708712.181958,604.000000,1.000000
3708712.181965,617.000000,1.000000
3708712.189538,681.000000,1.000000
3708712.189543,699.000000,1.000000
3708712.198361,699.000000,1.000000
3708712.198366,685.000000,1.000000
3708712.207197,622.000000,1.000000
3708712.207200,604.000000,1.000000
3708712.214614,604.000000,1.000000
3708712.214620,619.000000,1.000000
3708712.223442,682.000000,1.000000
3708712.223447,700.000000,1.000000
3708712.234808,701.000000,1.000000
3708712.234813,685.000000,1.000000
3708712.237345,621.000000,1.000000
3708712.237349,604.000000,1.000000
3708712.246165,604.000000,1.000000
3708712.246172,620.000000,1.000000
3708712.254977,683.000000,1.000000
3708712.254980,700.000000,1.000000
3708712.263807,701.000000,1.000000
3708712.263813,685.000000,1.000000
3708712.270109,622.000000,1.000000
3708712.270113,605.000000,1.000000
3708712.301290,604.000000,1.000000
3708712.301297,618.000000,1.000000
3708712.302574,682.000000,1.000000
3708712.302579,699.000000,1.000000
3708712.303849,699.000000,1.000000
3708712.303854,685.000000,1.000000
3708712.310157,623.000000,1.000000
3708712.310160,606.000000,1.000000
3708712.310166,605.000000,1.000000
3708712.310167,619.000000,1.000000
3708712.318969,682.000000,1.000000
3708712.318972,700.000000,1.000000
3708712.332843,701.000000,1.000000
3708712.332848,685.000000,1.000000
3708712.335378,622.000000,1.000000
3708712.335382,604.000000,1.000000
3708712.341707,604.000000,1.000000
3708712.341713,619.000000,1.000000
3708712.350512,683.000000,1.000000
3708712.350517,700.000000,1.000000
3708712.358164,700.000000,1.000000
3708712.358171,686.000000,1.000000
3708712.367016,623.000000,1.000000
3708712.367036,606.000000,1.000000
3708712.375862,606.000000,1.000000
3708712.375868,621.000000,1.000000
3708712.384688,684.000000,1.000000
3708712.384694,701.000000,1.000000
3708712.389671,701.000000,1.000000
3708712.389675,686.000000,1.000000
3708712.402260,622.000000,1.000000
3708712.402264,604.000000,1.000000
3708712.423677,604.000000,1.000000
3708712.423682,621.000000,1.000000
3708712.436286,686.000000,1.000000
3708712.436291,704.000000,1.000000
3708712.437557,703.000000,1.000000
3708712.437560,687.000000,1.000000
3708712.440084,623.000000,1.000000
3708712.440087,614.000000,1.000000
3708712.442612,615.000000,1.000000
3708712.442617,631.000000,1.000000
3708712.447661,698.000000,1.000000
3708712.447664,721.000000,1.000000
3708712.453965,731.000000,1.000000
3708712.453971,727.000000,1.000000
3708712.462670,675.000000,1.000000
3708712.462674,669.000000,1.000000
3708712.471493,682.000000,1.000000
3708712.471496,710.000000,1.000000
3708712.477790,783.000000,1.000000
3708712.477793,807.000000,1.000000
3708712.486630,812.000000,1.000000
3708712.486636,798.000000,1.000000
3708712.495474,734.000000,1.000000
3708712.495478,716.000000,1.000000
3708712.501804,714.000000,1.000000
3708712.501807,724.000000,1.000000
3708712.510630,781.000000,1.000000
3708712.510634,794.000000,1.000000
3708712.518199,789.000000,1.000000
3708712.518207,769.000000,1.000000
3708712.526993,701.000000,1.000000
3708712.526997,678.000000,1.000000
3708712.534475,672.000000,1.000000
3708712.534482,683.000000,1.000000
3708712.543288,741.000000,1.000000
3708712.543291,753.000000,1.000000
3708712.554622,748.000000,1.000000
3708712.554626,728.000000,1.000000
3708712.557158,661.000000,1.000000
3708712.557161,640.000000,1.000000
3708712.567226,636.000000,1.000000
3708712.567233,648.000000,1.000000
3708712.584872,708.000000,1.000000
3708712.584905,722.000000,1.000000
3708712.587437,719.000000,1.000000
3708712.587440,703.000000,1.000000
3708712.589970,638.000000,1.000000
3708712.589974,617.000000,1.000000
3708712.598809,616.000000,1.000000
3708712.598813,629.000000,1.000000
3708712.617704,691.000000,1.000000
3708712.617710,707.000000,1.000000
3708712.617718,706.000000,1.000000
3708712.617719,689.000000,1.000000
3708712.621513,625.000000,1.000000
3708712.621516,607.000000,1.000000
3708712.630347,606.000000,1.000000
3708712.630353,621.000000,1.000000
3708712.641688,684.000000,1.000000
3708712.641693,700.000000,1.000000
3708712.648022,699.000000,1.000000
3708712.648027,683.000000,1.000000
3708712.653089,620.000000,1.000000
3708712.653093,602.000000,1.000000
3708712.661772,602.000000,1.000000
3708712.661775,616.000000,1.000000
3708712.671917,680.000000,1.000000
3708712.671921,698.000000,1.000000
3708712.678378,697.000000,1.000000
3708712.678383,682.000000,1.000000
3708712.687191,619.000000,1.000000
3708712.687196,602.000000,1.000000
3708712.696048,602.000000,1.000000
3708712.696052,616.000000,1.000000
3708712.723727,679.000000,1.000000
3708712.723735,696.000000,1.000000
3708712.723741,698.000000,1.000000
3708712.723746,683.000000,1.000000
3708712.737585,619.000000,1.000000
3708712.737588,602.000000,1.000000
3708712.738861,601.000000,1.000000
3708712.738866,615.000000,1.000000
3708712.740139,678.000000,1.000000
3708712.740145,696.000000,1.000000
3708712.743978,697.000000,1.000000
3708712.743981,683.000000,1.000000
3708712.750309,620.000000,1.000000
3708712.750313,603.000000,1.000000
3708712.759131,602.000000,1.000000
3708712.759137,617.000000,1.000000
3708712.766680,680.000000,1.000000
3708712.766685,698.000000,1.000000
3708712.775554,698.000000,1.000000
3708712.775560,682.000000,1.000000
3708712.781882,619.000000,1.000000
3708712.781886,602.000000,1.000000
3708712.789477,603.000000,1.000000
3708712.789480,618.000000,1.000000
3708712.798280,680.000000,1.000000
3708712.798283,698.000000,1.000000
3708712.810685,697.000000,1.000000
3708712.810691,683.000000,1.000000
3708712.814475,620.000000,1.000000
3708712.814479,602.000000,1.000000
3708712.823316,601.000000,1.000000
3708712.823322,616.000000,1.000000
3708712.831871,680.000000,1.000000
3708712.831874,697.000000,1.000000
3708712.836936,696.000000,1.000000
3708712.836941,682.000000,1.000000
3708712.845800,619.000000,1.000000
3708712.845805,602.000000,1.000000
3708712.865672,602.000000,1.000000
3708712.865679,617.000000,1.000000
3708712.865686,680.000000,1.000000
3708712.865687,698.000000,1.000000
3708712.872011,698.000000,1.000000
3708712.872016,682.000000,1.000000
3708712.878318,619.000000,1.000000
3708712.878322,602.000000,1.000000
3708712.885885,603.000000,1.000000
3708712.885891,617.000000,1.000000
3708712.897209,681.000000,1.000000
3708712.897213,698.000000,1.000000
3708712.901002,696.000000,1.000000
3708712.901007,682.000000,1.000000
3708712.910862,619.000000,1.000000
3708712.910868,602.000000,1.000000
3708712.919687,601.000000,1.000000
3708712.919692,616.000000,1.000000
3708712.928515,681.000000,1.000000
3708712.928517,698.000000,1.000000
3708712.934822,698.000000,1.000000
3708712.934827,683.000000,1.000000
3708712.942379,619.000000,1.000000
3708712.942383,601.000000,1.000000
3708712.951195,600.000000,1.000000
3708712.951201,617.000000,1.000000
3708712.957496,681.000000,1.000000
3708712.957500,699.000000,1.000000
3708712.966315,699.000000,1.000000
3708712.966320,684.000000,1.000000
3708712.978894,620.000000,1.000000
3708712.978898,601.000000,1.000000
3708712.981425,604.000000,1.000000
3708712.981431,619.000000,1.000000
3708712.990239,681.000000,1.000000
3708712.990246,699.000000,1.000000
3708712.999069,698.000000,1.000000
3708712.999075,684.000000,1.000000
3708713.023015,620.000000,1.000000
3708713.023021,603.000000,1.000000
3708713.023028,603.000000,1.000000
3708713.023029,617.000000,1.000000
3708713.036913,681.000000,1.000000
3708713.036922,698.000000,1.000000
3708713.038193,698.000000,1.000000
3708713.038196,684.000000,1.000000
3708713.039460,620.000000,1.000000
3708713.039462,603.000000,1.000000
3708713.045765,602.000000,1.000000
3708713.045769,617.000000,1.000000
3708713.054570,680.000000,1.000000
3708713.054576,698.000000,1.000000
3708713.066956,700.000000,1.000000
3708713.066960,685.000000,1.000000
3708713.070755,622.000000,1.000000
3708713.070759,605.000000,1.000000
3708713.079567,604.000000,1.000000
3708713.079570,619.000000,1.000000
3708713.088382,681.000000,1.000000
3708713.088390,699.000000,1.000000
3708713.093433,700.000000,1.000000
3708713.093439,684.000000,1.000000
3708713.102284,620.000000,1.000000
3708713.102292,603.000000,1.000000
3708713.110905,603.000000,1.000000
3708713.110909,619.000000,1.000000
3708713.118448,682.000000,1.000000
3708713.118451,700.000000,1.000000
3708713.127272,700.000000,1.000000
3708713.127278,684.000000,1.000000
3708713.136111,621.000000,1.000000
3708713.136115,604.000000,1.000000
3708713.147447,604.000000,1.000000
3708713.147450,619.000000,1.000000
3708713.151240,682.000000,1.000000
3708713.151242,699.000000,1.000000
3708713.158758,699.000000,1.000000
3708713.158762,685.000000,1.000000
3708713.177654,621.000000,1.000000
3708713.177661,604.000000,1.000000
3708713.177667,605.000000,1.000000
3708713.177669,620.000000,1.000000
3708713.183957,682.000000,1.000000
3708713.183963,699.000000,1.000000
3708713.190270,699.000000,1.000000
3708713.190279,685.000000,1.000000
3708713.197860,621.000000,1.000000
3708713.197864,604.000000,1.000000
3708713.206693,604.000000,1.000000
3708713.206697,619.000000,1.000000
3708713.214342,683.000000,1.000000
3708713.214344,701.000000,1.000000
3708713.223249,700.000000,1.000000
3708713.223253,686.000000,1.000000
3708713.234647,622.000000,1.000000
3708713.234652,604.000000,1.000000
3708713.238435,604.000000,1.000000
3708713.238442,619.000000,1.000000
3708713.247241,682.000000,1.000000
3708713.247244,699.000000,1.000000
3708713.254822,700.000000,1.000000
3708713.254827,685.000000,1.000000
3708713.263693,621.000000,1.000000
3708713.263706,604.000000,1.000000
3708713.270005,604.000000,1.000000
3708713.270011,620.000000,1.000000
3708713.278804,682.000000,1.000000
3708713.278807,699.000000,1.000000
3708713.287619,700.000000,1.000000
3708713.287624,685.000000,1.000000
3708713.292673,622.000000,1.000000
3708713.292677,606.000000,1.000000
3708713.322940,605.000000,1.000000
3708713.322944,621.000000,1.000000
3708713.336807,685.000000,1.000000
3708713.336811,704.000000,1.000000
3708713.338081,704.000000,1.000000
3708713.338087,690.000000,1.000000
3708713.339354,627.000000,1.000000
3708713.339360,611.000000,1.000000
3708713.341883,616.000000,1.000000
3708713.341887,637.000000,1.000000
3708713.344409,700.000000,1.000000
3708713.344412,730.000000,1.000000
3708713.350730,735.000000,1.000000
3708713.350743,729.000000,1.000000
3708713.357042,677.000000,1.000000
3708713.357047,674.000000,1.000000
3708713.366972,684.000000,1.000000
3708713.366978,710.000000,1.000000
3708713.375793,780.000000,1.000000
3708713.375796,802.000000,1.000000
3708713.384633,805.000000,1.000000
3708713.384638,792.000000,1.000000
3708713.389682,728.000000,1.000000
3708713.389686,710.000000,1.000000
3708713.402288,706.000000,1.000000
3708713.402294,717.000000,1.000000
3708713.407334,778.000000,1.000000
3708713.407339,789.000000,1.000000
3708713.414904,785.000000,1.000000
3708713.414910,765.000000,1.000000
3708713.423753,696.000000,1.000000
3708713.423758,674.000000,1.000000
3708713.441353,668.000000,1.000000
3708713.441357,678.000000,1.000000
3708713.443880,738.000000,1.000000
3708713.443885,752.000000,1.000000
3708713.446477,747.000000,1.000000
3708713.446482,727.000000,1.000000
3708713.457863,661.000000,1.000000
3708713.457867,639.000000,1.000000
3708713.460454,635.000000,1.000000
3708713.460457,648.000000,1.000000
3708713.472993,708.000000,1.000000
3708713.473000,723.000000,1.000000
3708713.479324,721.000000,1.000000
3708713.479329,703.000000,1.000000
3708713.488169,638.000000,1.000000
3708713.488173,619.000000,1.000000
3708713.494489,616.000000,1.000000
3708713.494493,630.000000,1.000000
3708713.503308,691.000000,1.000000
3708713.503315,707.000000,1.000000
3708713.510878,706.000000,1.000000
3708713.510883,690.000000,1.000000
3708713.517193,625.000000,1.000000
3708713.517197,607.000000,1.000000
3708713.526026,605.000000,1.000000
3708713.526029,619.000000,1.000000
3708713.534855,682.000000,1.000000
3708713.534858,699.000000,1.000000
3708713.543744,699.000000,1.000000
3708713.543760,684.000000,1.000000
3708713.550120,620.000000,1.000000
3708713.550124,601.000000,1.000000
3708713.580415,601.000000,1.000000
3708713.580421,617.000000,1.000000
3708713.582945,680.000000,1.000000
3708713.582949,698.000000,1.000000
3708713.584235,697.000000,1.000000
3708713.584242,683.000000,1.000000
3708713.585507,619.000000,1.000000
3708713.585510,600.000000,1.000000
3708713.590552,600.000000,1.000000
3708713.590559,616.000000,1.000000
3708713.599266,680.000000,1.000000
3708713.599272,697.000000,1.000000
3708713.626994,697.000000,1.000000
3708713.626998,682.000000,1.000000
3708713.637075,619.000000,1.000000
3708713.637082,602.000000,1.000000
3708713.637088,601.000000,1.000000
3708713.637089,616.000000,1.000000
3708713.638356,679.000000,1.000000
3708713.638359,698.000000,1.000000
3708713.640884,699.000000,1.000000
3708713.640887,684.000000,1.000000
3708713.645964,620.000000,1.000000
3708713.645968,603.000000,1.000000
3708713.656044,603.000000,1.000000
3708713.656050,617.000000,1.000000
3708713.663610,682.000000,1.000000
3708713.663614,698.000000,1.000000
3708713.671121,697.000000,1.000000
3708713.671126,682.000000,1.000000
3708713.678722,619.000000,1.000000
3708713.678730,602.000000,1.000000
3708713.687547,601.000000,1.000000
3708713.687552,615.000000,1.000000
3708713.693842,679.000000,1.000000
3708713.693845,698.000000,1.000000
3708713.702673,698.000000,1.000000
3708713.702680,682.000000,1.000000
3708713.714021,618.000000,1.000000
3708713.714025,599.000000,1.000000
3708713.717823,599.000000,1.000000
3708713.717829,616.000000,1.000000
3708713.726628,680.000000,1.000000
3708713.726631,696.000000,1.000000
3708713.735264,697.000000,1.000000
3708713.735300,681.000000,1.000000
3708713.754188,617.000000,1.000000
3708713.754194,601.000000,1.000000
3708713.754202,600.000000,1.000000
3708713.754204,616.000000,1.000000
3708713.757988,678.000000,1.000000
3708713.757990,696.000000,1.000000
3708713.766649,697.000000,1.000000
3708713.766656,683.000000,1.000000
3708713.775496,620.000000,1.000000
3708713.775504,603.000000,1.000000
3708713.781817,602.000000,1.000000
3708713.781821,617.000000,1.000000
3708713.790642,680.000000,1.000000
3708713.790644,697.000000,1.000000
3708713.801978,698.000000,1.000000
3708713.801984,684.000000,1.000000
3708713.807195,619.000000,1.000000
3708713.807198,601.000000,1.000000
3708713.814738,601.000000,1.000000
3708713.814744,616.000000,1.000000
3708713.823554,679.000000,1.000000
3708713.823561,697.000000,1.000000
3708713.842424,697.000000,1.000000
3708713.842429,682.000000,1.000000
3708713.842472,618.000000,1.000000
3708713.842474,600.000000,1.000000
3708713.847516,601.000000,1.000000
3708713.847520,616.000000,1.000000
3708713.853817,679.000000,1.000000
3708713.853822,696.000000,1.000000
3708713.862668,696.000000,1.000000
3708713.862673,682.000000,1.000000
3708713.882610,618.000000,1.000000
3708713.882615,602.000000,1.000000
3708713.882622,601.000000,1.000000
3708713.882624,616.000000,1.000000
3708713.888712,679.000000,1.000000
3708713.888718,697.000000,1.000000
3708713.898810,697.000000,1.000000
3708713.898814,682.000000,1.000000
3708713.901339,619.000000,1.000000
3708713.901345,601.000000,1.000000
3708713.924011,601.000000,1.000000
3708713.924019,616.000000,1.000000
3708713.936647,679.000000,1.000000
3708713.936652,698.000000,1.000000
3708713.941696,697.000000,1.000000
3708713.941702,682.000000,1.000000
3708713.944227,619.000000,1.000000
3708713.944229,602.000000,1.000000
3708713.945493,601.000000,1.000000
3708713.945496,615.000000,1.000000
3708713.950540,680.000000,1.000000
3708713.950545,698.000000,1.000000
3708713.958094,698.000000,1.000000
3708713.958099,682.000000,1.000000
3708713.970544,618.000000,1.000000
3708713.970548,602.000000,1.000000
3708713.974329,602.000000,1.000000
3708713.974335,616.000000,1.000000
3708713.983114,680.000000,1.000000
3708713.983118,696.000000,1.000000
3708713.991952,695.000000,1.000000
3708713.991956,682.000000,1.000000
3708714.000758,619.000000,1.000000
3708714.000762,603.000000,1.000000
3708714.005809,602.000000,1.000000
3708714.005813,617.000000,1.000000
3708714.014616,680.000000,1.000000
3708714.014619,698.000000,1.000000
3708714.034473,698.000000,1.000000
3708714.034480,684.000000,1.000000
3708714.034485,620.000000,1.000000
3708714.034487,603.000000,1.000000
3708714.038268,602.000000,1.000000
3708714.038275,618.000000,1.000000
3708714.047076,682.000000,1.000000
3708714.047079,698.000000,1.000000
3708714.055965,698.000000,1.000000
3708714.055972,684.000000,1.000000
3708714.066056,620.000000,1.000000
3708714.066060,603.000000,1.000000
3708714.069840,603.000000,1.000000
3708714.069846,617.000000,1.000000
3708714.078653,680.000000,1.000000
3708714.078656,698.000000,1.000000
3708714.087465,697.000000,1.000000
3708714.087472,682.000000,1.000000
3708714.093746,619.000000,1.000000
3708714.093749,602.000000,1.000000
3708714.102641,602.000000,1.000000
3708714.102645,617.000000,1.000000
3708714.111454,681.000000,1.000000
3708714.111456,698.000000,1.000000
3708714.120290,698.000000,1.000000
3708714.120298,682.000000,1.000000
3708714.126607,619.000000,1.000000
3708714.126610,601.000000,1.000000
3708714.145466,601.000000,1.000000
3708714.145470,616.000000,1.000000
3708714.145477,679.000000,1.000000
3708714.145478,698.000000,1.000000
3708714.150551,699.000000,1.000000
3708714.150558,683.000000,1.000000
3708714.158149,619.000000,1.000000
3708714.158153,601.000000,1.000000
3708714.165717,602.000000,1.000000
3708714.165720,617.000000,1.000000
3708714.174517,681.000000,1.000000
3708714.174520,697.000000,1.000000
3708714.180843,697.000000,1.000000
3708714.180851,682.000000,1.000000
3708714.190943,618.000000,1.000000
3708714.190947,602.000000,1.000000
3708714.199750,602.000000,1.000000
3708714.199753,617.000000,1.000000
3708714.223687,680.000000,1.000000
3708714.223692,697.000000,1.000000
3708714.236286,698.000000,1.000000
3708714.236290,682.000000,1.000000
3708714.237556,618.000000,1.000000
3708714.237561,600.000000,1.000000
3708714.238834,600.000000,1.000000
3708714.238838,616.000000,1.000000
3708714.241365,679.000000,1.000000
3708714.241370,695.000000,1.000000
3708714.246446,697.000000,1.000000
3708714.246451,684.000000,1.000000
3708714.266345,622.000000,1.000000
3708714.266350,605.000000,1.000000
3708714.266357,604.000000,1.000000
3708714.266359,621.000000,1.000000
3708714.271400,687.000000,1.000000
3708714.271402,704.000000,1.000000
3708714.280226,708.000000,1.000000
3708714.280232,699.000000,1.000000
3708714.286544,644.000000,1.000000
3708714.286551,636.000000,1.000000
3708714.305420,641.000000,1.000000
3708714.305425,666.000000,1.000000
3708714.305431,744.000000,1.000000
3708714.305433,773.000000,1.000000
3708714.310479,787.000000,1.000000
3708714.310500,781.000000,1.000000
3708714.317924,722.000000,1.000000
3708714.317929,708.000000,1.000000
3708714.329277,713.000000,1.000000
3708714.329280,729.000000,1.000000
3708714.335575,795.000000,1.000000
3708714.335581,812.000000,1.000000
3708714.345666,811.000000,1.000000
3708714.345671,794.000000,1.000000
3708714.350726,727.000000,1.000000
3708714.350729,705.000000,1.000000
3708714.359551,702.000000,1.000000
3708714.359556,712.000000,1.000000
3708714.367102,771.000000,1.000000
3708714.367108,784.000000,1.000000
3708714.373420,778.000000,1.000000
3708714.373426,759.000000,1.000000
3708714.382241,692.000000,1.000000
3708714.382246,668.000000,1.000000
3708714.391049,664.000000,1.000000
3708714.391054,674.000000,1.000000
3708714.405005,733.000000,1.000000
3708714.405011,745.000000,1.000000
3708714.406278,742.000000,1.000000
3708714.406282,723.000000,1.000000
3708714.417665,656.000000,1.000000
3708714.417672,636.000000,1.000000
3708714.421457,632.000000,1.000000
3708714.421462,643.000000,1.000000
3708714.440334,705.000000,1.000000
3708714.440340,720.000000,1.000000
3708714.440347,717.000000,1.000000
3708714.440348,700.000000,1.000000
3708714.446691,635.000000,1.000000
3708714.446696,616.000000,1.000000
3708714.455502,614.000000,1.000000
3708714.455508,627.000000,1.000000
3708714.461799,689.000000,1.000000
3708714.461802,705.000000,1.000000
3708714.470621,705.000000,1.000000
3708714.470626,690.000000,1.000000
3708714.478203,626.000000,1.000000
3708714.478209,608.000000,1.000000
3708714.487004,606.000000,1.000000
3708714.487006,621.000000,1.000000
3708714.494638,683.000000,1.000000
3708714.494641,700.000000,1.000000
3708714.523667,699.000000,1.000000
3708714.523675,684.000000,1.000000
3708714.537592,620.000000,1.000000
3708714.537597,602.000000,1.000000
3708714.538870,603.000000,1.000000
3708714.538874,616.000000,1.000000
3708714.538880,679.000000,1.000000
3708714.538882,697.000000,1.000000
3708714.541430,698.000000,1.000000
3708714.541434,682.000000,1.000000
3708714.543968,618.000000,1.000000
3708714.543972,601.000000,1.000000
3708714.561580,601.000000,1.000000
3708714.561584,616.000000,1.000000
3708714.561591,680.000000,1.000000
3708714.561592,696.000000,1.000000
3708714.567923,697.000000,1.000000
3708714.567928,682.000000,1.000000
3708714.572984,617.000000,1.000000
3708714.572987,599.000000,1.000000
3708714.585561,598.000000,1.000000
3708714.585565,614.000000,1.000000
3708714.591867,678.000000,1.000000
3708714.591870,695.000000,1.000000
3708714.598186,696.000000,1.000000
3708714.598191,682.000000,1.000000
3708714.607058,618.000000,1.000000
3708714.607064,601.000000,1.000000
3708714.615909,600.000000,1.000000
3708714.615914,614.000000,1.000000
3708714.622208,677.000000,1.000000
3708714.622214,695.000000,1.000000
3708714.629780,696.000000,1.000000
3708714.629784,682.000000,1.000000
3708714.638633,618.000000,1.000000
3708714.638638,601.000000,1.000000
3708714.647443,601.000000,1.000000
3708714.647449,615.000000,1.000000
3708714.653740,678.000000,1.000000
3708714.653747,696.000000,1.000000
3708714.666228,696.000000,1.000000
3708714.666234,682.000000,1.000000
3708714.671297,617.000000,1.000000
3708714.671302,600.000000,1.000000
3708714.677643,599.000000,1.000000
3708714.677646,613.000000,1.000000
3708714.687710,677.000000,1.000000
3708714.687713,695.000000,1.000000
3708714.701814,695.000000,1.000000
3708714.701821,681.000000,1.000000
3708714.703159,617.000000,1.000000
3708714.703161,600.000000,1.000000
3708714.710706,599.000000,1.000000
3708714.710708,614.000000,1.000000
3708714.719525,678.000000,1.000000
3708714.719529,695.000000,1.000000
3708714.738410,695.000000,1.000000
3708714.738415,681.000000,1.000000
3708714.738421,617.000000,1.000000
3708714.738422,600.000000,1.000000
3708714.740947,600.000000,1.000000
3708714.740953,613.000000,1.000000
3708714.752273,678.000000,1.000000
3708714.752279,697.000000,1.000000
3708714.758576,696.000000,1.000000
3708714.758581,682.000000,1.000000
3708714.768542,618.000000,1.000000
3708714.768546,600.000000,1.000000
3708714.774844,601.000000,1.000000
3708714.774849,616.000000,1.000000
3708714.783656,679.000000,1.000000
3708714.783662,697.000000,1.000000
3708714.791244,697.000000,1.000000
3708714.791249,681.000000,1.000000
3708714.797541,618.000000,1.000000
3708714.797545,601.000000,1.000000
3708714.826520,600.000000,1.000000
3708714.826552,615.000000,1.000000
3708714.836626,679.000000,1.000000
3708714.836630,698.000000,1.000000
3708714.837899,698.000000,1.000000
3708714.837902,681.000000,1.000000
3708714.861843,618.000000,1.000000
3708714.861849,600.000000,1.000000
3708714.863201,600.000000,1.000000
3708714.863207,615.000000,1.000000
3708714.864495,679.000000,1.000000
3708714.864499,695.000000,1.000000
3708714.867038,695.000000,1.000000
3708714.867043,681.000000,1.000000
3708714.869569,618.000000,1.000000
3708714.869575,601.000000,1.000000
3708714.874615,601.000000,1.000000
3708714.874620,616.000000,1.000000
3708714.878406,679.000000,1.000000
3708714.878409,696.000000,1.000000
3708714.887230,696.000000,1.000000
3708714.887235,680.000000,1.000000
3708714.894797,616.000000,1.000000
3708714.894803,600.000000,1.000000
3708714.901100,599.000000,1.000000
3708714.901105,615.000000,1.000000
3708714.912422,679.000000,1.000000
3708714.912425,696.000000,1.000000
3708714.918748,696.000000,1.000000
3708714.918756,681.000000,1.000000
3708714.927584,617.000000,1.000000
3708714.927588,600.000000,1.000000
3708714.934926,600.000000,1.000000
3708714.934929,615.000000,1.000000
3708714.942481,679.000000,1.000000
3708714.942484,696.000000,1.000000
3708714.951385,696.000000,1.000000
3708714.951390,682.000000,1.000000
3708714.957724,618.000000,1.000000
3708714.957728,600.000000,1.000000
3708714.966537,600.000000,1.000000
3708714.966543,615.000000,1.000000
3708714.985417,678.000000,1.000000
3708714.985424,695.000000,1.000000
3708714.985431,695.000000,1.000000
3708714.985432,681.000000,1.000000
3708714.991768,616.000000,1.000000
3708714.991773,599.000000,1.000000
3708714.996814,599.000000,1.000000
3708714.996820,614.000000,1.000000
3708715.005645,677.000000,1.000000
3708715.005650,695.000000,1.000000
3708715.015541,695.000000,1.000000
3708715.015547,680.000000,1.000000
3708715.021849,616.000000,1.000000
3708715.021853,599.000000,1.000000
3708715.030661,598.000000,1.000000
3708715.030667,613.000000,1.000000
3708715.039486,677.000000,1.000000
3708715.039492,694.000000,1.000000
3708715.048399,694.000000,1.000000
3708715.048404,680.000000,1.000000
3708715.054558,617.000000,1.000000
3708715.054561,600.000000,1.000000
3708715.062117,599.000000,1.000000
3708715.062120,614.000000,1.000000
3708715.070921,677.000000,1.000000
3708715.070928,694.000000,1.000000
3708715.082267,694.000000,1.000000
3708715.082272,679.000000,1.000000
3708715.086049,615.000000,1.000000
3708715.086053,598.000000,1.000000
3708715.096086,598.000000,1.000000
3708715.096090,614.000000,1.000000
3708715.127650,677.000000,1.000000
3708715.127659,694.000000,1.000000
3708715.127665,694.000000,1.000000
3708715.127670,678.000000,1.000000
3708715.137736,615.000000,1.000000
3708715.137742,599.000000,1.000000
3708715.139012,598.000000,1.000000
3708715.139017,613.000000,1.000000
3708715.139023,677.000000,1.000000
3708715.139024,694.000000,1.000000
3708715.144087,694.000000,1.000000
3708715.144093,678.000000,1.000000
3708715.150395,615.000000,1.000000
3708715.150399,598.000000,1.000000
3708715.160403,598.000000,1.000000
3708715.160405,614.000000,1.000000
3708715.171753,678.000000,1.000000
3708715.171761,696.000000,1.000000
3708715.174284,696.000000,1.000000
3708715.174288,682.000000,1.000000
3708715.183105,622.000000,1.000000
3708715.183108,609.000000,1.000000
3708715.190648,611.000000,1.000000
3708715.190650,623.000000,1.000000
3708715.196936,691.000000,1.000000
3708715.196941,719.000000,1.000000
3708715.207081,729.000000,1.000000
3708715.207089,720.000000,1.000000
3708715.215928,667.000000,1.000000
3708715.215933,659.000000,1.000000
3708715.224752,675.000000,1.000000
3708715.224758,702.000000,1.000000
3708715.231051,776.000000,1.000000
3708715.231055,800.000000,1.000000
3708715.239915,803.000000,1.000000
3708715.239921,793.000000,1.000000
3708715.250001,731.000000,1.000000
3708715.250007,717.000000,1.000000
3708715.253788,719.000000,1.000000
3708715.253794,733.000000,1.000000
3708715.262598,795.000000,1.000000
3708715.262601,812.000000,1.000000
3708715.281502,810.000000,1.000000
3708715.281507,794.000000,1.000000
3708715.281526,727.000000,1.000000
3708715.281527,705.000000,1.000000
3708715.287828,702.000000,1.000000
3708715.287832,712.000000,1.000000
3708715.296652,770.000000,1.000000
3708715.296655,785.000000,1.000000
3708715.302969,779.000000,1.000000
3708715.302974,760.000000,1.000000
3708715.310552,691.000000,1.000000
3708715.310557,669.000000,1.000000
3708715.317884,665.000000,1.000000
3708715.317887,675.000000,1.000000
3708715.326702,735.000000,1.000000
3708715.326705,748.000000,1.000000
3708715.338075,744.000000,1.000000
3708715.338080,725.000000,1.000000
3708715.341880,658.000000,1.000000
3708715.341883,638.000000,1.000000
3708715.350708,634.000000,1.000000
3708715.350714,646.000000,1.000000
3708715.359534,706.000000,1.000000
3708715.359540,721.000000,1.000000
3708715.368414,720.000000,1.000000
3708715.368420,703.000000,1.000000
3708715.374736,637.000000,1.000000
3708715.374742,617.000000,1.000000
3708715.383656,616.000000,1.000000
3708715.383662,630.000000,1.000000
3708715.402707,692.000000,1.000000
3708715.402712,707.000000,1.000000
3708715.402726,706.000000,1.000000
3708715.402727,690.000000,1.000000
3708715.424164,626.000000,1.000000
3708715.424169,607.000000,1.000000
3708715.436769,606.000000,1.000000
3708715.436779,620.000000,1.000000
3708715.438048,682.000000,1.000000
3708715.438051,700.000000,1.000000
3708715.440582,699.000000,1.000000
3708715.440586,683.000000,1.000000
3708715.441852,619.000000,1.000000
3708715.441855,602.000000,1.000000
3708715.446898,601.000000,1.000000
3708715.446901,616.000000,1.000000
3708715.454446,680.000000,1.000000
3708715.454453,697.000000,1.000000
3708715.460754,697.000000,1.000000
3708715.460758,682.000000,1.000000
3708715.470664,618.000000,1.000000
3708715.470670,602.000000,1.000000
3708715.480734,601.000000,1.000000
3708715.480740,617.000000,1.000000
3708715.489544,680.000000,1.000000
3708715.489547,696.000000,1.000000
3708715.494605,696.000000,1.000000
3708715.494610,681.000000,1.000000
3708715.504702,617.000000,1.000000
3708715.504707,599.000000,1.000000
3708715.511003,599.000000,1.000000
3708715.511007,614.000000,1.000000
3708715.517297,679.000000,1.000000
3708715.517303,696.000000,1.000000
3708715.526122,696.000000,1.000000
3708715.526126,682.000000,1.000000
3708715.546259,619.000000,1.000000
3708715.546264,601.000000,1.000000
3708715.546271,600.000000,1.000000
3708715.546273,615.000000,1.000000
3708715.552576,678.000000,1.000000
3708715.552582,695.000000,1.000000
3708715.560163,695.000000,1.000000
3708715.560168,680.000000,1.000000
3708715.566461,619.000000,1.000000
3708715.566464,601.000000,1.000000
3708715.575273,601.000000,1.000000
3708715.575279,616.000000,1.000000
3708715.581567,679.000000,1.000000
3708715.581573,696.000000,1.000000
3708715.592900,696.000000,1.000000
3708715.592906,680.000000,1.000000
3708715.597969,617.000000,1.000000
3708715.597973,599.000000,1.000000
3708715.608010,599.000000,1.000000
3708715.608016,614.000000,1.000000
3708715.614309,679.000000,1.000000
3708715.614312,697.000000,1.000000
3708715.623149,696.000000,1.000000
3708715.623155,682.000000,1.000000
3708715.631974,619.000000,1.000000
3708715.631978,602.000000,1.000000
3708715.638277,600.000000,1.000000
3708715.638280,616.000000,1.000000
3708715.647079,679.000000,1.000000
3708715.647082,696.000000,1.000000
3708715.654639,696.000000,1.000000
3708715.654645,681.000000,1.000000
3708715.663468,619.000000,1.000000
3708715.663472,602.000000,1.000000
3708715.669602,601.000000,1.000000
3708715.669608,615.000000,1.000000
3708715.682216,679.000000,1.000000
3708715.682220,695.000000,1.000000
3708715.688536,696.000000,1.000000
3708715.688543,680.000000,1.000000
3708715.693591,617.000000,1.000000
3708715.693595,600.000000,1.000000
3708715.722537,600.000000,1.000000
3708715.722541,616.000000,1.000000
3708715.736417,678.000000,1.000000
3708715.736422,696.000000,1.000000
3708715.737690,697.000000,1.000000
3708715.737693,682.000000,1.000000
3708715.738961,619.000000,1.000000
3708715.738966,601.000000,1.000000
3708715.741495,601.000000,1.000000
3708715.741501,617.000000,1.000000
3708715.745089,679.000000,1.000000
3708715.745092,696.000000,1.000000
3708715.754011,697.000000,1.000000
3708715.754016,682.000000,1.000000
3708715.757812,617.000000,1.000000
3708715.757816,601.000000,1.000000
3708715.766510,601.000000,1.000000
3708715.766514,615.000000,1.000000
3708715.775318,678.000000,1.000000
3708715.775323,696.000000,1.000000
3708715.784138,696.000000,1.000000
3708715.784142,681.000000,1.000000
3708715.790474,616.000000,1.000000
3708715.790477,600.000000,1.000000
3708715.799283,600.000000,1.000000
3708715.799289,615.000000,1.000000
3708715.806836,679.000000,1.000000
3708715.806843,696.000000,1.000000
3708715.813200,697.000000,1.000000
3708715.813205,681.000000,1.000000
3708715.823420,617.000000,1.000000
3708715.823425,600.000000,1.000000
3708715.834783,600.000000,1.000000
3708715.834789,615.000000,1.000000
3708715.838574,679.000000,1.000000
3708715.838577,696.000000,1.000000
3708715.847406,696.000000,1.000000
3708715.847416,682.000000,1.000000
3708715.854991,618.000000,1.000000
3708715.854995,600.000000,1.000000
3708715.861286,600.000000,1.000000
3708715.861289,615.000000,1.000000
3708715.870090,678.000000,1.000000
3708715.870096,694.000000,1.000000
3708715.878910,696.000000,1.000000
3708715.878916,682.000000,1.000000
3708715.887739,619.000000,1.000000
3708715.887743,602.000000,1.000000
3708715.893810,601.000000,1.000000
3708715.893812,616.000000,1.000000
3708715.903877,680.000000,1.000000
3708715.903882,697.000000,1.000000
3708715.913986,696.000000,1.000000
3708715.913991,681.000000,1.000000
3708715.917780,617.000000,1.000000
3708715.917783,600.000000,1.000000
3708715.926602,600.000000,1.000000
3708715.926606,615.000000,1.000000
3708715.935413,678.000000,1.000000
3708715.935419,696.000000,1.000000
3708715.944253,697.000000,1.000000
3708715.944259,681.000000,1.000000
3708715.950583,616.000000,1.000000
3708715.950586,598.000000,1.000000
3708715.968189,600.000000,1.000000
3708715.968195,615.000000,1.000000
3708715.968202,678.000000,1.000000
3708715.968207,695.000000,1.000000
3708715.975743,696.000000,1.000000
3708715.975747,681.000000,1.000000
3708715.994625,617.000000,1.000000
3708715.994629,600.000000,1.000000
3708715.994635,599.000000,1.000000
3708715.994651,614.000000,1.000000
3708715.998433,678.000000,1.000000
3708715.998439,696.000000,1.000000
3708716.023656,696.000000,1.000000
3708716.023660,681.000000,1.000000
3708716.023666,617.000000,1.000000
3708716.023667,600.000000,1.000000
3708716.037524,600.000000,1.000000
3708716.037529,614.000000,1.000000
3708716.037535,678.000000,1.000000
3708716.037536,696.000000,1.000000
3708716.038838,695.000000,1.000000
3708716.038841,680.000000,1.000000
3708716.046455,615.000000,1.000000
3708716.046459,599.000000,1.000000
3708716.055279,599.000000,1.000000
3708716.055284,614.000000,1.000000
3708716.064100,678.000000,1.000000
3708716.064104,696.000000,1.000000
3708716.070424,699.000000,1.000000
3708716.070430,683.000000,1.000000
3708716.077983,623.000000,1.000000
3708716.077988,603.000000,1.000000
3708716.086760,604.000000,1.000000
3708716.086763,622.000000,1.000000
3708716.093152,688.000000,1.000000
3708716.093154,708.000000,1.000000
3708716.103312,715.000000,1.000000
3708716.103317,706.000000,1.000000
3708716.142430,647.000000,1.000000
3708716.142438,637.000000,1.000000
3708716.142449,647.000000,1.000000
3708716.142451,669.000000,1.000000
3708716.143717,746.000000,1.000000
3708716.143720,776.000000,1.000000
3708716.145003,785.000000,1.000000
3708716.145007,777.000000,1.000000
3708716.146272,720.000000,1.000000
3708716.146275,707.000000,1.000000
3708716.151319,711.000000,1.000000
3708716.151325,728.000000,1.000000
3708716.157612,794.000000,1.000000
3708716.157618,810.000000,1.000000
3708716.166429,811.000000,1.000000
3708716.166434,796.000000,1.000000
3708716.175263,730.000000,1.000000
3708716.175267,711.000000,1.000000
3708716.185330,709.000000,1.000000
3708716.185333,721.000000,1.000000
3708716.190212,780.000000,1.000000
3708716.190217,793.000000,1.000000
3708716.199043,788.000000,1.000000
3708716.199048,769.000000,1.000000
3708716.207879,700.000000,1.000000
3708716.207883,679.000000,1.000000
3708716.214182,675.000000,1.000000
3708716.214185,686.000000,1.000000
3708716.223000,744.000000,1.000000
3708716.223007,757.000000,1.000000
3708716.231842,752.000000,1.000000
3708716.231862,733.000000,1.000000
3708716.238194,667.000000,1.000000
3708716.238200,646.000000,1.000000
3708716.247001,643.000000,1.000000
3708716.247006,654.000000,1.000000
3708716.260863,715.000000,1.000000
3708716.260876,729.000000,1.000000
3708716.263404,727.000000,1.000000
3708716.263410,709.000000,1.000000
3708716.279802,643.000000,1.000000
3708716.279806,623.000000,1.000000
3708716.279812,621.000000,1.000000
3708716.279813,634.000000,1.000000
3708716.286116,696.000000,1.000000
3708716.286121,711.000000,1.000000
3708716.294958,710.000000,1.000000
3708716.294964,693.000000,1.000000
3708716.323912,628.000000,1.000000
3708716.323918,610.000000,1.000000
3708716.336533,610.000000,1.000000
3708716.336538,624.000000,1.000000
3708716.337807,687.000000,1.000000
3708716.337809,703.000000,1.000000
3708716.339073,702.000000,1.000000
3708716.339076,686.000000,1.000000
3708716.342856,622.000000,1.000000
3708716.342862,604.000000,1.000000
3708716.344125,603.000000,1.000000
3708716.344127,618.000000,1.000000
3708716.355483,681.000000,1.000000
3708716.355489,698.000000,1.000000
3708716.358019,698.000000,1.000000
3708716.358023,683.000000,1.000000
3708716.366847,620.000000,1.000000
3708716.366850,603.000000,1.000000
3708716.384444,601.000000,1.000000
3708716.384450,615.000000,1.000000
3708716.384456,678.000000,1.000000
3708716.384462,697.000000,1.000000
3708716.391893,697.000000,1.000000
3708716.391898,682.000000,1.000000
3708716.400705,619.000000,1.000000
3708716.400709,601.000000,1.000000
3708716.407009,600.000000,1.000000
3708716.407012,615.000000,1.000000
3708716.415813,678.000000,1.000000
3708716.415816,696.000000,1.000000
3708716.434709,695.000000,1.000000
3708716.434713,680.000000,1.000000
3708716.434719,617.000000,1.000000
3708716.434720,600.000000,1.000000
3708716.439754,600.000000,1.000000
3708716.439761,615.000000,1.000000
3708716.444791,678.000000,1.000000
3708716.444794,695.000000,1.000000
3708716.457386,695.000000,1.000000
3708716.457390,681.000000,1.000000
3708716.462370,617.000000,1.000000
3708716.462374,600.000000,1.000000
3708716.471191,599.000000,1.000000
3708716.471194,614.000000,1.000000
3708716.480007,678.000000,1.000000
3708716.480009,696.000000,1.000000
3708716.488863,695.000000,1.000000
3708716.488868,681.000000,1.000000
3708716.493910,617.000000,1.000000
3708716.493915,600.000000,1.000000
3708716.502696,598.000000,1.000000
3708716.502700,613.000000,1.000000
3708716.511539,676.000000,1.000000
3708716.511542,694.000000,1.000000
3708716.517850,694.000000,1.000000
3708716.517855,678.000000,1.000000
3708716.529186,614.000000,1.000000
3708716.529191,598.000000,1.000000
3708716.535500,598.000000,1.000000
3708716.535506,613.000000,1.000000
3708716.554397,677.000000,1.000000
3708716.554404,694.000000,1.000000
3708716.554410,695.000000,1.000000
3708716.554411,679.000000,1.000000
3708716.556954,616.000000,1.000000
3708716.556958,598.000000,1.000000
3708716.565790,597.000000,1.000000
3708716.565796,612.000000,1.000000
3708716.574597,677.000000,1.000000
3708716.574604,695.000000,1.000000
3708716.580910,695.000000,1.000000
3708716.580915,681.000000,1.000000
3708716.590873,617.000000,1.000000
3708716.590879,599.000000,1.000000
3708716.599697,600.000000,1.000000
3708716.599701,614.000000,1.000000
3708716.627588,677.000000,1.000000
3708716.627596,694.000000,1.000000
3708716.636401,695.000000,1.000000
3708716.636404,680.000000,1.000000
3708716.637668,616.000000,1.000000
3708716.637671,599.000000,1.000000
3708716.638939,599.000000,1.000000
3708716.638945,614.000000,1.000000
3708716.641469,676.000000,1.000000
3708716.641472,694.000000,1.000000
3708716.647776,695.000000,1.000000
3708716.647781,681.000000,1.000000
3708716.654079,617.000000,1.000000
3708716.654094,599.000000,1.000000
3708716.662921,600.000000,1.000000
3708716.662925,614.000000,1.000000
3708716.680634,677.000000,1.000000
3708716.680675,695.000000,1.000000
3708716.680684,695.000000,1.000000
3708716.680685,680.000000,1.000000
3708716.688330,616.000000,1.000000
3708716.688334,599.000000,1.000000
3708716.694634,598.000000,1.000000
3708716.694637,613.000000,1.000000
3708716.705965,677.000000,1.000000
3708716.705969,695.000000,1.000000
3708716.712277,694.000000,1.000000
3708716.712288,679.000000,1.000000
3708716.717327,615.000000,1.000000
3708716.717330,597.000000,1.000000
3708716.726132,598.000000,1.000000
3708716.726138,613.000000,1.000000
3708716.734936,676.000000,1.000000
3708716.734942,694.000000,1.000000
3708716.741258,694.000000,1.000000
3708716.741263,679.000000,1.000000
3708716.750104,615.000000,1.000000
3708716.750108,598.000000,1.000000
3708716.760019,599.000000,1.000000
3708716.760022,614.000000,1.000000
3708716.768832,677.000000,1.000000
3708716.768835,694.000000,1.000000
3708716.775149,694.000000,1.000000
3708716.775155,680.000000,1.000000
3708716.785235,617.000000,1.000000
3708716.785239,599.000000,1.000000
3708716.791541,598.000000,1.000000
3708716.791546,613.000000,1.000000
3708716.799103,677.000000,1.000000
3708716.799117,695.000000,1.000000
3708716.806772,694.000000,1.000000
3708716.806778,680.000000,1.000000
3708716.825751,615.000000,1.000000
3708716.825756,597.000000,1.000000
3708716.825763,597.000000,1.000000
3708716.825765,613.000000,1.000000
3708716.832068,678.000000,1.000000
3708716.832072,695.000000,1.000000
3708716.838394,695.000000,1.000000
3708716.838405,681.000000,1.000000
3708716.845991,617.000000,1.000000
3708716.845998,598.000000,1.000000
3708716.854811,598.000000,1.000000
3708716.854817,615.000000,1.000000
3708716.861109,677.000000,1.000000
3708716.861111,695.000000,1.000000
3708716.872446,695.000000,1.000000
3708716.872454,681.000000,1.000000
3708716.879885,617.000000,1.000000
3708716.879915,599.000000,1.000000
3708716.888727,599.000000,1.000000
3708716.888741,614.000000,1.000000
3708716.895043,677.000000,1.000000
3708716.895046,695.000000,1.000000
3708716.923987,695.000000,1.000000
3708716.923995,680.000000,1.000000
3708716.936604,616.000000,1.000000
3708716.936609,599.000000,1.000000
3708716.937878,599.000000,1.000000
3708716.937881,613.000000,1.000000
3708716.939147,676.000000,1.000000
3708716.939151,693.000000,1.000000
3708716.941691,695.000000,1.000000
3708716.941698,679.000000,1.000000
3708716.944224,616.000000,1.000000
3708716.944227,599.000000,1.000000
3708716.953049,599.000000,1.000000
3708716.953053,613.000000,1.000000
3708716.957958,676.000000,1.000000
3708716.957964,693.000000,1.000000
3708716.966836,694.000000,1.000000
3708716.966843,678.000000,1.000000
3708716.984777,613.000000,1.000000
3708716.984781,597.000000,1.000000
3708716.986050,596.000000,1.000000
3708716.986052,612.000000,1.000000
3708716.992358,676.000000,1.000000
3708716.992361,693.000000,1.000000
3708716.998662,692.000000,1.000000
3708716.998667,678.000000,1.000000
3708717.007498,614.000000,1.000000
3708717.007503,597.000000,1.000000
3708717.016329,597.000000,1.000000
3708717.016339,612.000000,1.000000
3708717.022636,675.000000,1.000000
3708717.022639,693.000000,1.000000
3708717.033981,695.000000,1.000000
3708717.033988,680.000000,1.000000
3708717.040259,618.000000,1.000000
3708717.040269,600.000000,1.000000
3708717.046668,599.000000,1.000000
3708717.046672,617.000000,1.000000
3708717.055486,682.000000,1.000000
3708717.055489,700.000000,1.000000
3708717.070616,707.000000,1.000000
3708717.070621,692.000000,1.000000
3708717.070642,630.000000,1.000000
3708717.070644,619.000000,1.000000
3708717.089534,621.000000,1.000000
3708717.089538,646.000000,1.000000
3708717.089545,718.000000,1.000000
3708717.089547,742.000000,1.000000
3708717.094635,753.000000,1.000000
3708717.094639,750.000000,1.000000
3708717.113548,696.000000,1.000000
3708717.113553,689.000000,1.000000
3708717.113559,696.000000,1.000000
3708717.113560,719.000000,1.000000
3708717.117340,787.000000,1.000000
3708717.117346,807.000000,1.000000
3708717.127027,809.000000,1.000000
3708717.127042,795.000000,1.000000
3708717.138359,731.000000,1.000000
3708717.138363,714.000000,1.000000
3708717.140885,715.000000,1.000000
3708717.140888,732.000000,1.000000
3708717.149689,797.000000,1.000000
3708717.149692,815.000000,1.000000
3708717.161031,814.000000,1.000000
3708717.161037,799.000000,1.000000
3708717.166092,735.000000,1.000000
3708717.166096,720.000000,1.000000
3708717.176019,720.000000,1.000000
3708717.176023,735.000000,1.000000
3708717.184834,798.000000,1.000000
3708717.184838,817.000000,1.000000
3708717.191145,818.000000,1.000000
3708717.191150,803.000000,1.000000
3708717.199966,740.000000,1.000000
3708717.199976,721.000000,1.000000
3708717.223901,722.000000,1.000000
3708717.223906,735.000000,1.000000
3708717.236509,797.000000,1.000000
3708717.236512,813.000000,1.000000
3708717.237780,811.000000,1.000000
3708717.237786,793.000000,1.000000
3708717.239054,726.000000,1.000000
3708717.239059,705.000000,1.000000
3708717.241586,700.000000,1.000000
3708717.241592,709.000000,1.000000
3708717.247893,767.000000,1.000000
3708717.247897,779.000000,1.000000
3708717.254199,775.000000,1.000000
3708717.254203,756.000000,1.000000
3708717.261762,687.000000,1.000000
3708717.261766,665.000000,1.000000
3708717.281910,661.000000,1.000000
3708717.281914,673.000000,1.000000
3708717.281920,733.000000,1.000000
3708717.281926,746.000000,1.000000
3708717.288240,742.000000,1.000000
3708717.288247,723.000000,1.000000
3708717.294557,657.000000,1.000000
3708717.294562,636.000000,1.000000
3708717.305912,633.000000,1.000000
3708717.305918,644.000000,1.000000
3708717.312220,705.000000,1.000000
3708717.312223,719.000000,1.000000
3708717.317303,717.000000,1.000000
3708717.317308,700.000000,1.000000
3708717.326230,634.000000,1.000000
3708717.326234,616.000000,1.000000
3708717.335070,613.000000,1.000000
3708717.335076,625.000000,1.000000
3708717.343876,688.000000,1.000000
3708717.343879,704.000000,1.000000
3708717.350194,703.000000,1.000000
3708717.350200,686.000000,1.000000
3708717.357841,621.000000,1.000000
3708717.357845,603.000000,1.000000
3708717.377764,603.000000,1.000000
3708717.377767,617.000000,1.000000
3708717.377775,679.000000,1.000000
3708717.377776,696.000000,1.000000
3708717.382824,696.000000,1.000000
3708717.382832,680.000000,1.000000
3708717.392923,616.000000,1.000000
3708717.392927,599.000000,1.000000
3708717.420675,598.000000,1.000000
3708717.420679,612.000000,1.000000
3708717.423220,674.000000,1.000000
3708717.423224,692.000000,1.000000
3708717.424493,692.000000,1.000000
3708717.424592,677.000000,1.000000
3708717.424663,613.000000,1.000000
3708717.424671,596.000000,1.000000
3708717.430966,596.000000,1.000000
3708717.430972,611.000000,1.000000
3708717.439781,674.000000,1.000000
3708717.439784,691.000000,1.000000
3708717.448610,691.000000,1.000000
3708717.448614,676.000000,1.000000
3708717.453663,612.000000,1.000000
3708717.453666,595.000000,1.000000
3708717.462476,595.000000,1.000000
3708717.462479,610.000000,1.000000
3708717.470027,674.000000,1.000000
3708717.470033,692.000000,1.000000
3708717.478860,692.000000,1.000000
3708717.478866,676.000000,1.000000
3708717.487703,614.000000,1.000000
3708717.487707,596.000000,1.000000
3708717.496510,595.000000,1.000000
3708717.496513,610.000000,1.000000
3708717.523961,673.000000,1.000000
3708717.523968,691.000000,1.000000
3708717.536548,691.000000,1.000000
3708717.536551,676.000000,1.000000
3708717.537816,613.000000,1.000000
3708717.537822,596.000000,1.000000
3708717.539088,594.000000,1.000000
3708717.539091,610.000000,1.000000
3708717.542931,673.000000,1.000000
3708717.542939,691.000000,1.000000
3708717.544220,691.000000,1.000000
3708717.544223,675.000000,1.000000
3708717.555555,611.000000,1.000000
3708717.555561,594.000000,1.000000
3708717.558087,594.000000,1.000000
3708717.558093,610.000000,1.000000
3708717.566898,674.000000,1.000000
3708717.566904,690.000000,1.000000
3708717.574479,691.000000,1.000000
3708717.574485,676.000000,1.000000
3708717.581841,612.000000,1.000000
3708717.581849,595.000000,1.000000
3708717.590707,594.000000,1.000000
3708717.590711,609.000000,1.000000
3708717.599518,673.000000,1.000000
3708717.599524,691.000000,1.000000
3708717.608355,690.000000,1.000000
3708717.608365,676.000000,1.000000
3708717.613555,612.000000,1.000000
3708717.613584,595.000000,1.000000
3708717.623740,594.000000,1.000000
3708717.623749,609.000000,1.000000
3708717.635094,673.000000,1.000000
3708717.635100,690.000000,1.000000
3708717.637641,690.000000,1.000000
3708717.637646,675.000000,1.000000
3708717.646460,613.000000,1.000000
3708717.646464,595.000000,1.000000
3708717.665335,595.000000,1.000000
3708717.665339,609.000000,1.000000
3708717.665346,673.000000,1.000000
3708717.665352,690.000000,1.000000
3708717.671674,690.000000,1.000000
3708717.671679,675.000000,1.000000
3708717.679241,612.000000,1.000000
3708717.679247,595.000000,1.000000
3708717.686608,595.000000,1.000000
3708717.686614,609.000000,1.000000
3708717.695429,672.000000,1.000000
3708717.695432,690.000000,1.000000
3708717.701745,691.000000,1.000000
3708717.701751,676.000000,1.000000
3708717.710563,612.000000,1.000000
3708717.710567,594.000000,1.000000
3708717.721896,594.000000,1.000000
3708717.721902,610.000000,1.000000
3708717.728194,672.000000,1.000000
3708717.728196,690.000000,1.000000
3708717.734497,689.000000,1.000000
3708717.734504,674.000000,1.000000
3708717.742094,611.000000,1.000000
3708717.742102,594.000000,1.000000
3708717.751973,593.000000,1.000000
3708717.751979,608.000000,1.000000
3708717.758275,671.000000,1.000000
3708717.758282,688.000000,1.000000
3708717.767101,689.000000,1.000000
3708717.767113,673.000000,1.000000
3708717.775954,610.000000,1.000000
3708717.775958,593.000000,1.000000
3708717.783512,592.000000,1.000000
3708717.783518,607.000000,1.000000
3708717.789811,672.000000,1.000000
3708717.789816,690.000000,1.000000
3708717.801158,689.000000,1.000000
3708717.801163,674.000000,1.000000
3708717.822588,611.000000,1.000000
3708717.822594,593.000000,1.000000
3708717.837560,591.000000,1.000000
3708717.837566,608.000000,1.000000
3708717.838835,672.000000,1.000000
3708717.838839,689.000000,1.000000
3708717.840108,688.000000,1.000000
3708717.840112,674.000000,1.000000
3708717.842635,612.000000,1.000000
3708717.842638,594.000000,1.000000
3708717.847681,595.000000,1.000000
3708717.847686,609.000000,1.000000
3708717.857748,672.000000,1.000000
3708717.857753,689.000000,1.000000
3708717.864053,690.000000,1.000000
3708717.864060,674.000000,1.000000
3708717.871629,611.000000,1.000000
3708717.871633,595.000000,1.000000
3708717.877923,594.000000,1.000000
3708717.877925,609.000000,1.000000
3708717.886789,673.000000,1.000000
3708717.886804,693.000000,1.000000
3708717.895688,693.000000,1.000000
3708717.895694,678.000000,1.000000
3708717.904519,615.000000,1.000000
3708717.904522,602.000000,1.000000
3708717.910820,602.000000,1.000000
3708717.910823,620.000000,1.000000
3708717.919628,690.000000,1.000000
3708717.919634,711.000000,1.000000
3708717.937284,717.000000,1.000000
3708717.937289,710.000000,1.000000
3708717.937295,656.000000,1.000000
3708717.937296,648.000000,1.000000
3708717.941074,659.000000,1.000000
3708717.941080,686.000000,1.000000
3708717.949875,758.000000,1.000000
3708717.949881,785.000000,1.000000
3708717.958695,790.000000,1.000000
3708717.958700,783.000000,1.000000
3708717.971139,722.000000,1.000000
3708717.971143,708.000000,1.000000
3708717.973679,708.000000,1.000000
3708717.973683,724.000000,1.000000
3708717.983771,790.000000,1.000000
3708717.983774,808.000000,1.000000
3708717.992618,808.000000,1.000000
3708717.992623,792.000000,1.000000
3708717.997666,728.000000,0.000000
3708717.997670,710.000000,0.000000
3708718.006503,709.000000,0.000000
3708718.006508,722.000000,0.000000
3708718.015312,784.000000,0.000000
3708718.015317,800.000000,0.000000
3708718.021619,799.000000,0.000000
3708718.021624,782.000000,0.000000
3708718.030433,715.000000,1.000000
3708718.030437,695.000000,1.000000
3708718.039250,691.000000,1.000000
3708718.039257,703.000000,1.000000
3708718.050581,762.000000,1.000000
3708718.050586,776.000000,1.000000
3708718.054130,772.000000,1.000000
3708718.054135,753.000000,1.000000
3708718.062977,685.000000,1.000000
3708718.062981,664.000000,1.000000
3708718.071794,660.000000,1.000000
3708718.071802,672.000000,1.000000
3708718.080607,731.000000,1.000000
3708718.080611,745.000000,1.000000
3708718.086927,742.000000,1.000000
3708718.086932,723.000000,1.000000
3708718.123454,657.000000,1.000000
3708718.123458,635.000000,1.000000
3708718.123485,632.000000,1.000000
3708718.123487,645.000000,1.000000
3708718.137163,706.000000,1.000000
3708718.137170,721.000000,1.000000
3708718.138438,720.000000,1.000000
3708718.138444,702.000000,1.000000
3708718.139713,637.000000,1.000000
3708718.139719,619.000000,1.000000
3708718.142241,616.000000,1.000000
3708718.142244,629.000000,1.000000
3708718.143509,691.000000,1.000000
3708718.143511,706.000000,1.000000
3708718.151096,705.000000,1.000000
3708718.151101,689.000000,1.000000
3708718.159916,625.000000,1.000000
3708718.159920,607.000000,1.000000
3708718.168726,606.000000,1.000000
3708718.168732,619.000000,1.000000
3708718.175017,681.000000,1.000000
3708718.175023,699.000000,1.000000
3708718.182636,699.000000,1.000000
3708718.182641,683.000000,1.000000
3708718.191522,618.000000,1.000000
3708718.191527,600.000000,1.000000
3708718.197831,600.000000,1.000000
3708718.197835,614.000000,1.000000
3708718.206645,676.000000,1.000000
3708718.206650,694.000000,1.000000
3708718.218030,694.000000,1.000000
3708718.218043,678.000000,1.000000
3708718.224379,615.000000,1.000000
3708718.224383,598.000000,1.000000
3708718.230680,598.000000,1.000000
3708718.230686,613.000000,1.000000
3708718.239490,676.000000,1.000000
3708718.239495,692.000000,1.000000
3708718.257134,692.000000,1.000000
3708718.257138,677.000000,1.000000
3708718.257144,613.000000,1.000000
3708718.257145,596.000000,1.000000
3708718.260923,596.000000,1.000000
3708718.260926,612.000000,1.000000
3708718.270992,675.000000,1.000000
3708718.270996,692.000000,1.000000
3708718.279845,693.000000,1.000000
3708718.279852,678.000000,1.000000
3708718.288708,613.000000,1.000000
3708718.288712,595.000000,1.000000
3708718.295084,595.000000,1.000000
3708718.295087,611.000000,1.000000
3708718.306416,675.000000,1.000000
3708718.306419,692.000000,1.000000
3708718.311445,692.000000,1.000000
3708718.311451,677.000000,1.000000
3708718.317761,615.000000,1.000000
3708718.317765,597.000000,1.000000
3708718.326571,596.000000,1.000000
3708718.326574,611.000000,1.000000
3708718.335381,674.000000,1.000000
3708718.335387,691.000000,1.000000
3708718.344257,691.000000,1.000000
3708718.344264,676.000000,1.000000
3708718.350601,612.000000,1.000000
3708718.350606,594.000000,1.000000
3708718.358170,594.000000,1.000000
3708718.358172,609.000000,1.000000
3708718.372106,674.000000,1.000000
3708718.372112,691.000000,1.000000
3708718.378462,690.000000,1.000000
3708718.378466,676.000000,1.000000
3708718.382252,613.000000,1.000000
3708718.382256,596.000000,1.000000
3708718.393570,595.000000,1.000000
3708718.393575,610.000000,1.000000
3708718.399864,673.000000,1.000000
3708718.399867,690.000000,1.000000
3708718.422535,690.000000,1.000000
3708718.422541,676.000000,1.000000
3708718.436394,612.000000,1.000000
3708718.436399,595.000000,1.000000
3708718.437704,595.000000,1.000000
3708718.437712,610.000000,1.000000
3708718.438979,673.000000,1.000000
3708718.438991,690.000000,1.000000
3708718.441536,691.000000,1.000000
3708718.441539,676.000000,1.000000
3708718.447875,613.000000,1.000000
3708718.447878,595.000000,1.000000
3708718.452911,595.000000,1.000000
3708718.452913,610.000000,1.000000
3708718.464272,673.000000,1.000000
3708718.464276,690.000000,1.000000
3708718.471870,691.000000,1.000000
3708718.471882,677.000000,1.000000
3708718.478251,613.000000,1.000000
3708718.478256,595.000000,1.000000
3708718.487080,595.000000,1.000000
3708718.487086,610.000000,1.000000
3708718.505968,673.000000,1.000000
3708718.505973,691.000000,1.000000
3708718.505979,691.000000,1.000000
3708718.505981,676.000000,1.000000
3708718.511049,613.000000,1.000000
3708718.511053,596.000000,1.000000
3708718.519874,595.000000,1.000000
3708718.519879,611.000000,1.000000
3708718.526171,673.000000,1.000000
3708718.526176,691.000000,1.000000
3708718.545054,691.000000,1.000000
3708718.545058,676.000000,1.000000
3708718.545073,613.000000,1.000000
3708718.545075,596.000000,1.000000
3708718.552588,596.000000,1.000000
3708718.552594,612.000000,1.000000
3708718.558893,675.000000,1.000000
3708718.558899,693.000000,1.000000
3708718.567727,693.000000,1.000000
3708718.567732,678.000000,1.000000
3708718.585378,614.000000,1.000000
3708718.585384,597.000000,1.000000
3708718.585391,596.000000,1.000000
3708718.585392,611.000000,1.000000
3708718.591687,675.000000,1.000000
3708718.591693,691.000000,1.000000
3708718.597997,692.000000,1.000000
3708718.598002,676.000000,1.000000
3708718.605563,613.000000,1.000000
3708718.605567,596.000000,1.000000
3708718.614391,596.000000,1.000000
3708718.614395,611.000000,1.000000
3708718.623192,674.000000,1.000000
3708718.623195,691.000000,1.000000
3708718.630916,692.000000,1.000000
3708718.630920,677.000000,1.000000
3708718.639761,614.000000,1.000000
3708718.639765,598.000000,1.000000
3708718.651094,598.000000,1.000000
3708718.651100,613.000000,1.000000
3708718.654884,676.000000,1.000000
3708718.654890,693.000000,1.000000
3708718.662471,693.000000,1.000000
3708718.662482,678.000000,1.000000
3708718.676356,613.000000,1.000000
3708718.676360,596.000000,1.000000
3708718.701560,596.000000,1.000000
3708718.701565,610.000000,1.000000
3708718.722938,672.000000,1.000000
3708718.722944,690.000000,1.000000
3708718.736752,690.000000,1.000000
3708718.736756,676.000000,1.000000
3708718.738019,612.000000,1.000000
3708718.738025,595.000000,1.000000
3708718.739297,595.000000,1.000000
3708718.739302,610.000000,1.000000
3708718.741830,674.000000,1.000000
3708718.741836,691.000000,1.000000
3708718.741842,691.000000,1.000000
3708718.741843,677.000000,1.000000
3708718.744363,613.000000,1.000000
3708718.744366,597.000000,1.000000
3708718.745631,597.000000,1.000000
3708718.745634,613.000000,1.000000
3708718.750685,678.000000,1.000000
3708718.750692,694.000000,1.000000
3708718.759509,693.000000,1.000000
3708718.759514,684.000000,1.000000
3708718.767075,623.000000,1.000000
3708718.767078,604.000000,1.000000
3708718.773378,615.000000,1.000000
3708718.773384,628.000000,1.000000
3708718.782184,699.000000,1.000000
3708718.782190,726.000000,1.000000
3708718.803374,737.000000,1.000000
3708718.803380,736.000000,1.000000
3708718.803386,685.000000,1.000000
3708718.803391,680.000000,1.000000
3708718.809684,691.000000,1.000000
3708718.809687,713.000000,1.000000
3708718.815978,782.000000,1.000000
3708718.815981,802.000000,1.000000
3708718.824572,805.000000,1.000000
3708718.824580,794.000000,1.000000
3708718.830888,731.000000,1.000000
3708718.830892,715.000000,1.000000
3708718.837191,715.000000,1.000000
3708718.837197,731.000000,1.000000
3708718.845997,796.000000,1.000000
3708718.846000,811.000000,1.000000
3708718.854865,812.000000,1.000000
3708718.854870,798.000000,1.000000
3708718.862420,735.000000,1.000000
3708718.862424,720.000000,1.000000
3708718.871236,720.000000,1.000000
3708718.871251,732.000000,1.000000
3708718.880067,797.000000,1.000000
3708718.880070,815.000000,1.000000
3708718.888821,818.000000,1.000000
3708718.888828,801.000000,1.000000
3708718.893909,740.000000,1.000000
3708718.893915,723.000000,1.000000
3708718.905246,721.000000,1.000000
3708718.905250,736.000000,1.000000
3708718.911536,800.000000,1.000000
3708718.911539,817.000000,1.000000
3708718.917855,818.000000,1.000000
3708718.917866,800.000000,1.000000
3708718.926712,735.000000,1.000000
3708718.926716,717.000000,1.000000
3708718.945585,714.000000,1.000000
3708718.945588,728.000000,1.000000
3708718.945594,789.000000,1.000000
3708718.945600,802.000000,1.000000
3708718.950653,797.000000,1.000000
3708718.950662,778.000000,1.000000
3708718.958195,710.000000,1.000000
3708718.958199,687.000000,1.000000
3708718.967023,681.000000,1.000000
3708718.967028,692.000000,1.000000
3708718.975838,751.000000,1.000000
3708718.975841,764.000000,1.000000
3708718.982144,759.000000,1.000000
3708718.982149,740.000000,1.000000
3708718.993495,672.000000,1.000000
3708718.993499,649.000000,1.000000
3708718.998545,645.000000,1.000000
3708718.998549,656.000000,1.000000
3708719.022473,716.000000,1.000000
3708719.022478,731.000000,1.000000
3708719.037169,727.000000,1.000000
3708719.037173,709.000000,1.000000
3708719.038441,643.000000,1.000000
3708719.038446,623.000000,1.000000
3708719.039714,620.000000,1.000000
3708719.039718,633.000000,1.000000
3708719.042245,694.000000,1.000000
3708719.042252,709.000000,1.000000
3708719.047299,709.000000,1.000000
3708719.047304,691.000000,1.000000
3708719.053622,625.000000,1.000000
3708719.053636,607.000000,1.000000
3708719.062468,605.000000,1.000000
3708719.062474,619.000000,1.000000
3708719.073788,681.000000,1.000000
3708719.073793,698.000000,1.000000
3708719.080105,696.000000,1.000000
3708719.080118,680.000000,1.000000
3708719.086450,617.000000,1.000000
3708719.086458,599.000000,1.000000
3708719.106586,598.000000,1.000000
3708719.106612,612.000000,1.000000
3708719.106652,676.000000,1.000000
3708719.106653,692.000000,1.000000
3708719.111694,692.000000,1.000000
3708719.111698,677.000000,1.000000
3708719.118022,613.000000,1.000000
3708719.118026,596.000000,1.000000
3708719.126837,595.000000,1.000000
3708719.126840,611.000000,1.000000
3708719.135647,674.000000,1.000000
3708719.135652,692.000000,1.000000
3708719.141962,692.000000,1.000000
3708719.141967,677.000000,1.000000
3708719.149587,613.000000,1.000000
3708719.149591,597.000000,1.000000
3708719.160911,595.000000,1.000000
3708719.160914,612.000000,1.000000
3708719.167211,675.000000,1.000000
3708719.167217,692.000000,1.000000
3708719.174558,692.000000,1.000000
3708719.174575,677.000000,1.000000
3708719.183447,613.000000,1.000000
3708719.183452,596.000000,1.000000
3708719.192258,596.000000,1.000000
3708719.192261,611.000000,1.000000
3708719.198548,674.000000,1.000000
3708719.198551,692.000000,1.000000
3708719.207379,691.000000,1.000000
3708719.207384,677.000000,1.000000
3708719.225022,615.000000,1.000000
3708719.225027,597.000000,1.000000
3708719.225033,596.000000,1.000000
3708719.225039,611.000000,1.000000
3708719.231342,675.000000,1.000000
3708719.231346,693.000000,1.000000
3708719.237702,692.000000,1.000000
3708719.237711,677.000000,1.000000
3708719.247801,615.000000,1.000000
3708719.247806,597.000000,1.000000
3708719.255389,596.000000,1.000000
3708719.255393,612.000000,1.000000
3708719.261699,676.000000,1.000000
3708719.261701,693.000000,1.000000
3708719.271798,693.000000,1.000000
3708719.271803,677.000000,1.000000
3708719.280621,614.000000,1.000000
3708719.280625,598.000000,1.000000
3708719.289446,597.000000,1.000000
3708719.289451,611.000000,1.000000
3708719.295748,674.000000,1.000000
3708719.295751,692.000000,1.000000
3708719.323520,693.000000,1.000000
3708719.323528,677.000000,1.000000
3708719.336119,615.000000,1.000000
3708719.336124,598.000000,1.000000
3708719.337393,598.000000,1.000000
3708719.337396,613.000000,1.000000
3708719.341197,677.000000,1.000000
3708719.341201,694.000000,1.000000
3708719.341207,694.000000,1.000000
3708719.341208,679.000000,1.000000
3708719.342473,616.000000,1.000000
3708719.342476,599.000000,1.000000
3708719.351148,598.000000,1.000000
3708719.351153,612.000000,1.000000
3708719.359966,675.000000,1.000000
3708719.359968,693.000000,1.000000
3708719.378859,694.000000,1.000000
3708719.378863,679.000000,1.000000
3708719.378869,615.000000,1.000000
3708719.378870,597.000000,1.000000
3708719.381388,596.000000,1.000000
3708719.381390,612.000000,1.000000
3708719.390196,676.000000,1.000000
3708719.390199,694.000000,1.000000
3708719.399011,694.000000,1.000000
3708719.399016,679.000000,1.000000
3708719.407903,614.000000,1.000000
3708719.407913,597.000000,1.000000
3708719.414212,598.000000,1.000000
3708719.414218,612.000000,1.000000
3708719.423029,676.000000,1.000000
3708719.423034,693.000000,1.000000
3708719.430522,693.000000,1.000000
3708719.430559,678.000000,1.000000
3708719.438176,615.000000,1.000000
3708719.438182,598.000000,1.000000
3708719.446982,598.000000,1.000000
3708719.446986,612.000000,1.000000
3708719.455800,675.000000,1.000000
3708719.455803,693.000000,1.000000
3708719.464632,694.000000,1.000000
3708719.464636,677.000000,1.000000
3708719.470950,614.000000,1.000000
3708719.470954,597.000000,1.000000
3708719.479763,597.000000,1.000000
3708719.479776,612.000000,1.000000
3708719.498684,675.000000,1.000000
3708719.498694,693.000000,1.000000
3708719.498700,693.000000,1.000000
3708719.498701,678.000000,1.000000
3708719.501257,614.000000,1.000000
3708719.501260,598.000000,1.000000
3708719.513845,597.000000,1.000000
3708719.513852,612.000000,1.000000
3708719.517630,674.000000,1.000000
3708719.517633,693.000000,1.000000
3708719.526444,694.000000,1.000000
3708719.526449,679.000000,1.000000
3708719.535275,616.000000,1.000000
3708719.535279,597.000000,1.000000
3708719.541578,598.000000,1.000000
3708719.541584,612.000000,1.000000
3708719.550391,675.000000,1.000000
3708719.550397,693.000000,1.000000
3708719.559175,693.000000,1.000000
3708719.559180,678.000000,1.000000
3708719.567994,614.000000,1.000000
3708719.567997,597.000000,1.000000
3708719.574300,598.000000,1.000000
3708719.574306,613.000000,1.000000
3708719.585631,676.000000,1.000000
3708719.585637,693.000000,1.000000
3708719.591944,693.000000,1.000000
3708719.591950,678.000000,1.000000
3708719.597004,615.000000,1.000000
3708719.597037,597.000000,1.000000
3708719.625954,598.000000,1.000000
3708719.625960,612.000000,1.000000
3708719.637140,676.000000,1.000000
3708719.637146,694.000000,1.000000
3708719.638415,694.000000,1.000000
3708719.638421,680.000000,1.000000
3708719.639685,618.000000,1.000000
3708719.639690,601.000000,1.000000
3708719.642213,602.000000,1.000000
3708719.642218,618.000000,1.000000
3708719.648511,682.000000,1.000000
3708719.648516,702.000000,1.000000
3708719.654832,707.000000,1.000000
3708719.654838,698.000000,1.000000
3708719.669987,640.000000,1.000000
3708719.669994,635.000000,1.000000
3708719.672518,642.000000,1.000000
3708719.672524,668.000000,1.000000
3708719.677554,748.000000,1.000000
3708719.677556,786.000000,1.000000
3708719.687537,791.000000,1.000000
3708719.687543,783.000000,1.000000
3708719.695151,727.000000,1.000000
3708719.695155,715.000000,1.000000
3708719.700307,718.000000,1.000000
3708719.700310,732.000000,1.000000
3708719.710382,797.000000,1.000000
3708719.710385,817.000000,1.000000
3708719.717996,819.000000,1.000000
3708719.718002,804.000000,1.000000
3708719.726823,741.000000,1.000000
3708719.726827,726.000000,1.000000
3708719.735641,726.000000,1.000000
3708719.735648,739.000000,1.000000
3708719.746987,803.000000,1.000000
3708719.746991,824.000000,1.000000
3708719.750782,823.000000,1.000000
3708719.750786,809.000000,1.000000
3708719.759639,747.000000,1.000000
3708719.759643,729.000000,1.000000
3708719.778511,727.000000,1.000000
3708719.778515,743.000000,1.000000
3708719.778522,807.000000,1.000000
3708719.778523,825.000000,1.000000
3708719.782307,824.000000,1.000000
3708719.782312,808.000000,1.000000
3708719.789922,744.000000,1.000000
3708719.789926,724.000000,1.000000
3708719.798755,722.000000,1.000000
3708719.798761,734.000000,1.000000
3708719.817635,793.000000,1.000000
3708719.817649,808.000000,1.000000
3708719.817662,804.000000,1.000000
3708719.817663,784.000000,1.000000
3708719.821457,715.000000,1.000000
3708719.821462,692.000000,1.000000
3708719.831399,687.000000,1.000000
3708719.831403,698.000000,1.000000
3708719.841485,755.000000,1.000000
3708719.841488,767.000000,1.000000
3708719.847810,762.000000,1.000000
3708719.847816,742.000000,1.000000
3708719.854122,674.000000,1.000000
3708719.854126,652.000000,1.000000
3708719.862958,648.000000,1.000000
3708719.862961,659.000000,1.000000
3708719.871775,718.000000,1.000000
3708719.871781,732.000000,1.000000
3708719.878164,729.000000,1.000000
3708719.878171,711.000000,1.000000
3708719.886994,645.000000,1.000000
3708719.886998,625.000000,1.000000
3708719.894548,622.000000,1.000000
3708719.894550,635.000000,1.000000
3708719.922295,696.000000,1.000000
3708719.922301,711.000000,1.000000
3708719.936128,710.000000,1.000000
3708719.936131,693.000000,1.000000
3708719.937394,628.000000,1.000000
3708719.937397,609.000000,1.000000
3708719.938700,607.000000,1.000000
3708719.938703,621.000000,1.000000
3708719.942532,685.000000,1.000000
3708719.942539,702.000000,1.000000
3708719.945109,701.000000,1.000000
3708719.945114,685.000000,1.000000
3708719.981659,620.000000,1.000000
3708719.981668,602.000000,1.000000
3708719.981674,601.000000,1.000000
3708719.981676,616.000000,1.000000
3708719.982944,679.000000,1.000000
3708719.982977,697.000000,1.000000
3708719.984247,696.000000,1.000000
3708719.984250,681.000000,1.000000
3708719.985516,618.000000,1.000000
3708719.985519,600.000000,1.000000
3708719.990558,600.000000,1.000000
3708719.990564,615.000000,1.000000
3708719.999376,678.000000,1.000000
3708719.999380,697.000000,1.000000
3708720.009462,698.000000,1.000000
3708720.009468,683.000000,1.000000
3708720.013280,619.000000,1.000000
3708720.013312,602.000000,1.000000
3708720.023348,602.000000,1.000000
3708720.023352,617.000000,1.000000
3708720.032162,680.000000,1.000000
3708720.032175,698.000000,1.000000
3708720.038498,698.000000,1.000000
3708720.038506,683.000000,1.000000
3708720.047325,618.000000,1.000000
3708720.047330,602.000000,1.000000
3708720.066214,602.000000,1.000000
3708720.066221,616.000000,1.000000
3708720.066227,679.000000,1.000000
3708720.066229,697.000000,1.000000
3708720.072544,696.000000,1.000000
3708720.072549,681.000000,1.000000
3708720.080124,617.000000,1.000000
3708720.080128,600.000000,1.000000
3708720.086425,601.000000,1.000000
3708720.086431,616.000000,1.000000
3708720.099010,680.000000,1.000000
3708720.099013,696.000000,1.000000
3708720.102844,697.000000,1.000000
3708720.102848,681.000000,1.000000
3708720.110448,617.000000,1.000000
3708720.110452,600.000000,1.000000
3708720.119312,600.000000,1.000000
3708720.119318,615.000000,1.000000
3708720.126867,678.000000,1.000000
3708720.126870,695.000000,1.000000
3708720.133172,696.000000,1.000000
3708720.133176,681.000000,1.000000
3708720.142021,617.000000,1.000000
3708720.142025,599.000000,1.000000
3708720.152102,599.000000,1.000000
3708720.152108,615.000000,1.000000
3708720.158407,679.000000,1.000000
3708720.158412,696.000000,1.000000
3708720.167223,696.000000,1.000000
3708720.167229,681.000000,1.000000
3708720.178565,617.000000,1.000000
3708720.178570,600.000000,1.000000
3708720.182356,601.000000,1.000000
3708720.182363,616.000000,1.000000
3708720.191175,678.000000,1.000000
3708720.191178,696.000000,1.000000
3708720.198752,696.000000,1.000000
3708720.198761,681.000000,1.000000
3708720.222708,618.000000,1.000000
3708720.222714,601.000000,1.000000
3708720.222721,601.000000,1.000000
3708720.222722,615.000000,1.000000
3708720.236636,678.000000,1.000000
3708720.236641,696.000000,1.000000
3708720.237911,696.000000,1.000000
3708720.237914,681.000000,1.000000
3708720.240259,617.000000,1.000000
3708720.240262,600.000000,1.000000
3708720.246564,601.000000,1.000000
3708720.246569,616.000000,1.000000
3708720.255397,680.000000,1.000000
3708720.255402,696.000000,1.000000
3708720.261722,696.000000,1.000000
3708720.261730,682.000000,1.000000
3708720.269447,618.000000,1.000000
3708720.269490,600.000000,1.000000
3708720.278354,600.000000,1.000000
3708720.278357,615.000000,1.000000
3708720.288472,679.000000,1.000000
3708720.288488,696.000000,1.000000
3708720.294728,696.000000,1.000000
3708720.294732,682.000000,1.000000
3708720.302309,618.000000,1.000000
3708720.302314,600.000000,1.000000
3708720.311117,600.000000,1.000000
3708720.311120,616.000000,1.000000
3708720.317409,679.000000,1.000000
3708720.317414,696.000000,1.000000
3708720.326229,696.000000,1.000000
3708720.326235,681.000000,1.000000
3708720.340080,617.000000,1.000000
3708720.340084,600.000000,1.000000
3708720.342608,600.000000,1.000000
3708720.342613,615.000000,1.000000
3708720.360221,679.000000,1.000000
3708720.360237,697.000000,1.000000
3708720.360244,697.000000,1.000000
3708720.360245,681.000000,1.000000
3708720.376839,618.000000,1.000000
3708720.376844,601.000000,1.000000
3708720.378109,601.000000,1.000000
3708720.378112,616.000000,1.000000
3708720.383155,680.000000,1.000000
3708720.383159,697.000000,1.000000
3708720.391990,697.000000,1.000000
3708720.391997,681.000000,1.000000
3708720.400842,618.000000,1.000000
3708720.400848,602.000000,1.000000
3708720.409665,601.000000,1.000000
3708720.409668,617.000000,1.000000
3708720.414700,680.000000,1.000000
3708720.414703,698.000000,1.000000
3708720.423580,698.000000,1.000000
3708720.423585,682.000000,1.000000
3708720.431188,619.000000,1.000000
3708720.431193,602.000000,1.000000
3708720.440014,601.000000,1.000000
3708720.440020,616.000000,1.000000
3708720.446310,679.000000,1.000000
3708720.446313,696.000000,1.000000
3708720.455143,697.000000,1.000000
3708720.455149,682.000000,1.000000
3708720.463999,618.000000,1.000000
3708720.464004,600.000000,1.000000
3708720.470121,600.000000,1.000000
3708720.470127,616.000000,1.000000
3708720.478938,679.000000,1.000000
3708720.478941,696.000000,1.000000
3708720.487768,696.000000,1.000000
3708720.487774,680.000000,1.000000
3708720.494086,617.000000,1.000000
3708720.494089,600.000000,1.000000
3708720.523034,601.000000,1.000000
3708720.523040,616.000000,1.000000
3708720.536878,680.000000,1.000000
3708720.536885,697.000000,1.000000
3708720.538153,697.000000,1.000000
3708720.538158,682.000000,1.000000
3708720.539426,619.000000,1.000000
3708720.539432,602.000000,1.000000
3708720.540697,603.000000,1.000000
3708720.540700,619.000000,1.000000
3708720.544269,680.000000,1.000000
3708720.544273,701.000000,1.000000
3708720.551836,705.000000,1.000000
3708720.551841,690.000000,1.000000
3708720.558147,629.000000,1.000000
3708720.558149,616.000000,1.000000
3708720.566956,620.000000,1.000000
3708720.566962,641.000000,1.000000
3708720.575778,714.000000,1.000000
3708720.575784,739.000000,1.000000
3708720.583340,749.000000,1.000000
3708720.583346,745.000000,1.000000
3708720.589692,694.000000,1.000000
3708720.589696,689.000000,1.000000
3708720.601031,699.000000,1.000000
3708720.601035,722.000000,1.000000
3708720.607324,789.000000,1.000000
3708720.607330,811.000000,1.000000
3708720.613702,813.000000,1.000000
3708720.613708,799.000000,1.000000
3708720.623815,737.000000,1.000000
3708720.623829,720.000000,1.000000
3708720.642706,717.000000,1.000000
3708720.642712,735.000000,1.000000
3708720.642718,801.000000,1.000000
3708720.642725,819.000000,1.000000
3708720.647782,820.000000,1.000000
3708720.647787,805.000000,1.000000
3708720.654112,737.000000,1.000000
3708720.654117,720.000000,1.000000
3708720.662918,722.000000,1.000000
3708720.662920,739.000000,1.000000
3708720.671726,801.000000,1.000000
3708720.671729,818.000000,1.000000
3708720.678033,816.000000,1.000000
3708720.678038,799.000000,1.000000
3708720.689155,733.000000,1.000000
3708720.689177,712.000000,1.000000
3708720.695470,708.000000,1.000000
3708720.695473,719.000000,1.000000
3708720.701767,778.000000,1.000000
3708720.701769,790.000000,1.000000
3708720.710596,785.000000,1.000000
3708720.710602,766.000000,1.000000
3708720.719433,699.000000,1.000000
3708720.719437,676.000000,1.000000
3708720.728239,672.000000,1.000000
3708720.728241,682.000000,1.000000
3708720.737064,742.000000,1.000000
3708720.737067,754.000000,1.000000
3708720.743367,750.000000,1.000000
3708720.743375,731.000000,1.000000
3708720.762025,662.000000,1.000000
3708720.762029,641.000000,1.000000
3708720.762035,638.000000,1.000000
3708720.762036,650.000000,1.000000
3708720.768335,711.000000,1.000000
3708720.768341,725.000000,1.000000
3708720.774691,722.000000,1.000000
3708720.774695,705.000000,1.000000
3708720.782288,639.000000,1.000000
3708720.782292,620.000000,1.000000
3708720.801212,619.000000,1.000000
3708720.801218,633.000000,1.000000
3708720.801225,693.000000,1.000000
3708720.801228,709.000000,1.000000
3708720.826422,708.000000,1.000000
3708720.826430,692.000000,1.000000
3708720.837763,628.000000,1.000000
3708720.837770,610.000000,1.000000
3708720.839037,609.000000,1.000000
3708720.839041,623.000000,1.000000
3708720.840306,685.000000,1.000000
3708720.840308,703.000000,1.000000
3708720.842832,703.000000,1.000000
3708720.842835,687.000000,1.000000
3708720.847880,623.000000,1.000000
3708720.847883,606.000000,1.000000
3708720.854174,605.000000,1.000000
3708720.854180,620.000000,1.000000
3708720.865503,684.000000,1.000000
3708720.865507,700.000000,1.000000
3708720.870622,700.000000,1.000000
3708720.870629,686.000000,1.000000
3708720.878068,622.000000,1.000000
3708720.878072,604.000000,1.000000
3708720.886913,603.000000,1.000000
3708720.886919,619.000000,1.000000
3708720.905821,682.000000,1.000000
3708720.905825,700.000000,1.000000
3708720.905833,701.000000,1.000000
3708720.905834,686.000000,1.000000
3708720.912234,622.000000,1.000000
3708720.912237,605.000000,1.000000
3708720.921058,604.000000,1.000000
3708720.921061,619.000000,1.000000
3708720.927359,682.000000,1.000000
3708720.927362,699.000000,1.000000
3708720.941394,699.000000,1.000000
3708720.941399,684.000000,1.000000
3708720.946444,621.000000,1.000000
3708720.946447,604.000000,1.000000
3708720.950232,604.000000,1.000000
3708720.950237,619.000000,1.000000
3708720.961566,682.000000,1.000000
3708720.961568,699.000000,1.000000
3708720.967885,699.000000,1.000000
3708720.967890,684.000000,1.000000
3708720.974189,620.000000,1.000000
3708720.974192,602.000000,1.000000
3708720.983022,602.000000,1.000000
3708720.983028,617.000000,1.000000
3708720.991847,680.000000,1.000000
3708720.991852,698.000000,1.000000
3708720.998172,699.000000,1.000000
3708720.998177,684.000000,1.000000
3708721.005736,620.000000,1.000000
3708721.005740,603.000000,1.000000
3708721.014580,603.000000,1.000000
3708721.014584,618.000000,1.000000
3708721.023392,681.000000,1.000000
3708721.023396,697.000000,1.000000
3708721.029556,697.000000,1.000000
3708721.029561,683.000000,1.000000
3708721.042173,619.000000,1.000000
3708721.042177,601.000000,1.000000
3708721.048510,602.000000,1.000000
3708721.048515,617.000000,1.000000
3708721.054815,680.000000,1.000000
3708721.054821,697.000000,1.000000
3708721.063653,699.000000,1.000000
3708721.063660,684.000000,1.000000
3708721.081280,621.000000,1.000000
3708721.081285,603.000000,1.000000
3708721.081291,602.000000,1.000000
3708721.081294,618.000000,1.000000
3708721.087586,681.000000,1.000000
3708721.087592,698.000000,1.000000
3708721.093900,698.000000,1.000000
3708721.093906,684.000000,1.000000
3708721.123987,621.000000,1.000000
3708721.123993,603.000000,1.000000
3708721.137849,603.000000,1.000000
3708721.137855,618.000000,1.000000
3708721.137861,681.000000,1.000000
3708721.137862,697.000000,1.000000
3708721.139126,698.000000,1.000000
3708721.139129,684.000000,1.000000
3708721.141662,620.000000,1.000000
3708721.141666,604.000000,1.000000
3708721.144189,603.000000,1.000000
3708721.144191,618.000000,1.000000
3708721.151744,681.000000,1.000000
3708721.151748,698.000000,1.000000
3708721.158102,699.000000,1.000000
3708721.158108,684.000000,1.000000
3708721.166974,620.000000,1.000000
3708721.166978,602.000000,1.000000
3708721.185860,602.000000,1.000000
3708721.185864,618.000000,1.000000
3708721.185872,681.000000,1.000000
3708721.185873,697.000000,1.000000
3708721.192195,698.000000,1.000000
3708721.192200,681.000000,1.000000
3708721.201035,615.000000,1.000000
3708721.201039,595.000000,1.000000
3708721.206087,589.000000,1.000000
3708721.206094,599.000000,1.000000
3708721.217423,658.000000,1.000000
3708721.217429,671.000000,1.000000
3708721.221261,666.000000,1.000000
3708721.221266,646.000000,1.000000
3708721.230083,579.000000,1.000000
3708721.230087,557.000000,1.000000
3708721.261367,553.000000,1.000000
3708721.261372,564.000000,1.000000
3708721.263893,623.000000,1.000000
3708721.263897,637.000000,1.000000
3708721.265171,635.000000,1.000000
3708721.265178,616.000000,1.000000
3708721.266448,549.000000,1.000000
3708721.266454,529.000000,1.000000
3708721.270235,526.000000,1.000000
3708721.270237,537.000000,1.000000
3708721.280306,597.000000,1.000000
3708721.280310,611.000000,1.000000
3708721.290429,607.000000,1.000000
3708721.290435,589.000000,1.000000
3708721.294233,522.000000,1.000000
3708721.294237,501.000000,1.000000
3708721.303097,498.000000,1.000000
3708721.303110,510.000000,1.000000
3708721.311929,571.000000,1.000000
3708721.311931,585.000000,1.000000
3708721.318254,583.000000,1.000000
3708721.318259,566.000000,1.000000
3708721.328340,501.000000,1.000000
3708721.328345,483.000000,1.000000
3708721.345949,482.000000,1.000000
3708721.345953,497.000000,1.000000
3708721.345959,560.000000,1.000000
3708721.345976,578.000000,1.000000
3708721.352303,580.000000,1.000000
3708721.352314,566.000000,1.000000
3708721.357351,504.000000,1.000000
3708721.357355,487.000000,1.000000
3708721.366167,487.000000,1.000000
3708721.366170,503.000000,1.000000
